1064.88049316	2.94117641
1064.88452148	3.27450991
1064.88867188	3.41176462
1064.89294434	3.23529410
1064.89294434	3.72549009
1064.89672852	3.82352948
1064.90087891	2.86274505
1064.90502930	2.58823538
1064.90502930	2.62745094
1064.90893555	2.76470590
1064.91345215	2.19607854
1064.91723633	1.76470590
1064.92138672	1.41176474
1064.92138672	1.39215684
1064.92541504	1.19607842
1064.92944336	0.92156863
1064.93383789	0.84313726
1064.93383789	1.29411769
1064.93774414	1.50980389
1064.94189453	1.13725495
1064.94604492	1.33333337
1064.95007324	1.33333337
1064.95007324	1.47058821
1064.95410156	1.33333337
1064.95825195	1.41176474
1064.96264648	1.58823526
1064.96264648	1.19607842
1064.96643066	1.17647064
1064.97045898	1.23529410
1064.97460938	2.13725495
1064.97888184	1.68627453
1064.98278809	1.41176474
1064.98706055	1.21568632
1064.99108887	1.13725495
1064.99108887	1.62745094
1064.99511719	1.96078432
1064.99926758	1.78431368
1065.00329590	1.64705884
1065.00732422	1.11764705
1065.01147461	0.72549021
1065.01550293	0.64705884
1065.01977539	0.90196079
1065.01977539	0.84313726
1065.02392578	0.92156863
1065.02783203	1.17647064
1065.03198242	1.27450979
1065.03588867	1.17647064
1065.04003906	1.54901958
1065.04418945	1.43137252
1065.04833984	1.52941179
1065.04833984	1.25490201
1065.05236816	1.21568632
1065.05639648	0.80392158
1065.06054688	0.70588237
1065.06481934	0.01960784
1065.06872559	0.13725491
1065.07299805	0.41176471
1065.07690430	0.86274511
1065.07690430	1.84313726
1065.08105469	2.98039222
1065.08508301	4.03921556
1065.08923340	4.98039198
1065.09338379	4.98039198
1065.09753418	4.94117641
1065.10156250	4.54901981
1065.10571289	4.50980377
1065.10571289	3.86274505
1065.10986328	2.72549009
1065.11401367	1.27450979
1065.11804199	0.76470590
1065.11804199	0.54901963
1065.12194824	0.19607843
1065.12622070	0.39215687
1065.13049316	0.62745100
1065.13439941	0.88235295
1065.13439941	1.19607842
1065.13854980	1.31372547
1065.14257813	1.21568632
1065.14709473	1.62745094
1065.14709473	1.66666663
1065.15075684	1.76470590
1065.15478516	2.27450991
1065.15893555	2.50980401
1065.16308594	1.90196073
1065.16308594	1.66666663
1065.16711426	1.49019611
1065.17126465	1.62745094
1065.17553711	1.78431368
1065.17553711	1.92156863
1065.17968750	2.11764717
1065.18383789	1.78431368
1065.18762207	2.05882359
1065.19165039	2.29411769
1065.19165039	2.50980401
1065.19604492	2.15686274
1065.19982910	2.07843137
1065.20397949	2.41176462
1065.20397949	2.68627453
1065.20812988	2.43137264
1065.21240234	2.64705873
1065.21643066	2.23529410
1065.22058105	2.37254906
1065.22058105	2.66666675
1065.22460938	2.29411769
1065.22863770	2.62745094
1065.23291016	2.86274505
1065.23291016	2.72549009
1065.23693848	2.60784316
1065.24108887	2.47058821
1065.24511719	2.35294127
1065.24902344	2.94117641
1065.24902344	2.90196085
1065.25317383	2.84313726
1065.25744629	2.64705873
1065.26159668	2.86274505
1065.26159668	2.96078420
1065.26538086	2.96078420
1065.26953125	2.84313726
1065.27355957	2.92156863
1065.27770996	3.01960778
1065.27770996	2.70588231
1065.28198242	2.15686274
1065.28576660	1.68627453
1065.29003906	1.78431368
1065.29003906	1.68627453
1065.29406738	1.86274505
1065.29821777	1.86274505
1065.30212402	1.82352936
1065.30627441	2.01960778
1065.30627441	2.01960778
1065.31042480	1.72549021
1065.31469727	1.84313726
1065.31896973	1.96078432
1065.31896973	1.60784316
1065.32287598	1.45098042
1065.32727051	1.60784316
1065.33142090	1.68627453
1065.33508301	2.05882359
1065.33508301	1.84313726
1065.33898926	1.70588231
1065.34326172	1.62745094
1065.34753418	1.62745094
1065.34753418	1.98039210
1065.35156250	1.94117641
1065.35559082	1.88235295
1065.35986328	1.56862748
1065.36376953	0.80392158
1065.36779785	0.56862748
1065.37182617	0.47058824
1065.37597656	0.90196079
1065.37597656	1.90196073
1065.38012695	1.50980389
1065.38427734	1.15686274
1065.38842773	1.35294116
1065.39257813	1.17647064
1065.39672852	1.31372547
1065.40087891	1.43137252
1065.40527344	1.27450979
1065.40527344	1.17647064
1065.40881348	0.98039216
1065.41296387	0.43137255
1065.41711426	0.01960784
1065.42114258	0.64705884
1065.42529297	1.56862748
1065.42944336	2.52941179
1065.43334961	3.98039222
1065.43334961	4.98039198
1065.43750000	4.98039198
1065.44165039	4.98039198
1065.44592285	4.98039198
1065.44982910	4.82352924
1065.45385742	4.07843161
1065.45800781	2.70588231
1065.46228027	1.74509799
1065.46228027	0.88235295
1065.46618652	0.01960784
1065.47045898	0.01960784
1065.47460938	0.01960784
1065.47851563	0.49019608
1065.48254395	0.27450982
1065.48657227	0.01960784
1065.49072266	0.03921569
1065.49072266	0.21568628
1065.49536133	0.21568628
1065.49890137	0.45098040
1065.50292969	0.33333334
1065.50292969	0.35294119
1065.50708008	0.23529412
1065.51123047	0.76470590
1065.51525879	0.88235295
1065.51928711	0.70588237
1065.51928711	0.92156863
1065.52343750	0.74509805
1065.52758789	0.84313726
1065.53173828	0.84313726
1065.53173828	1.13725495
1065.53576660	1.37254906
1065.54016113	1.56862748
1065.54418945	1.92156863
1065.54833984	1.82352936
1065.54833984	1.66666663
1065.55212402	1.62745094
1065.55627441	1.68627453
1065.56030273	1.92156863
1065.56030273	1.66666663
1065.56445313	1.68627453
1065.56848145	1.80392158
1065.57275391	1.84313726
1065.57666016	2.11764717
1065.57666016	2.17647052
1065.58093262	2.19607854
1065.58496094	2.49019599
1065.58898926	2.72549009
1065.58898926	2.82352948
1065.59326172	2.94117641
1065.59729004	2.64705873
1065.60131836	2.80392146
1065.60546875	2.54901958
1065.60546875	2.52941179
1065.60961914	2.94117641
1065.61364746	3.33333325
1065.61767578	2.90196085
1065.61767578	2.56862736
1065.62170410	2.68627453
1065.62585449	2.62745094
1065.63000488	2.58823538
1065.63415527	2.11764717
1065.63415527	2.27450991
1065.63818359	2.31372547
1065.64221191	2.35294127
1065.64660645	2.11764717
1065.64660645	1.98039210
1065.65051270	1.52941179
1065.65466309	1.66666663
1065.65869141	1.76470590
1065.66284180	2.09803915
1065.66284180	2.13725495
1065.66687012	2.17647052
1065.67126465	2.17647052
1065.67541504	2.47058821
1065.67541504	2.76470590
1065.67932129	2.23529410
1065.68347168	1.96078432
1065.68737793	1.88235295
1065.69165039	1.98039210
1065.69165039	2.17647052
1065.69567871	2.00000000
1065.69970703	1.96078432
1065.70385742	1.88235295
1065.70385742	2.01960778
1065.70788574	1.74509799
1065.71179199	1.70588231
1065.71594238	1.82352936
1065.72009277	1.35294116
1065.72009277	1.58823526
1065.72424316	1.54901958
1065.72851563	1.74509799
1065.73242188	1.98039210
1065.73242188	2.23529410
1065.73645020	2.39215684
1065.74072266	2.27450991
1065.74475098	2.64705873
1065.74877930	2.96078420
1065.75280762	3.01960778
1065.75695801	2.50980401
1065.76110840	2.03921580
1065.76110840	1.50980389
1065.76513672	1.15686274
1065.76916504	1.01960790
1065.77331543	1.23529410
1065.77758789	2.05882359
1065.78161621	3.45098042
1065.78576660	4.98039198
1065.78979492	4.98039198
1065.78979492	4.98039198
1065.79382324	4.98039198
1065.79797363	4.98039198
1065.80224609	4.98039198
1065.80639648	3.94117641
1065.81042480	2.86274505
1065.81457520	1.94117641
1065.81848145	1.72549021
1065.81848145	1.76470590
1065.82250977	1.52941179
1065.82653809	1.82352936
1065.83068848	2.09803915
1065.83483887	2.56862736
1065.83886719	2.80392146
1065.84289551	2.58823538
1065.84704590	2.39215684
1065.84704590	2.50980401
1065.85131836	2.76470590
1065.85534668	3.03921580
1065.85961914	3.74509811
1065.86364746	4.62745094
1065.86767578	4.35294104
1065.87170410	4.07843161
1065.87573242	4.07843161
1065.87573242	4.09803915
1065.88000488	4.17647076
1065.88403320	4.72549009
1065.88818359	4.62745094
1065.88818359	4.31372547
1065.89221191	4.00000000
1065.89636230	4.19607830
1065.90039063	4.60784292
1065.90454102	4.98039198
1065.90454102	4.98039198
1065.90856934	4.88235283
1065.91284180	4.90196085
1065.91674805	4.31372547
1065.91674805	4.17647076
1065.92102051	4.86274529
1065.92504883	4.98039198
1065.92919922	4.98039198
1065.93334961	4.98039198
1065.93334961	4.98039198
1065.93725586	4.98039198
1065.94152832	4.98039198
1065.94580078	4.98039198
1065.94580078	4.98039198
1065.94946289	4.98039198
1065.95373535	4.98039198
1065.95776367	4.82352924
1065.96191406	4.78431368
1065.96191406	4.82352924
1065.96594238	4.98039198
1065.96997070	4.98039198
1065.97412109	4.98039198
1065.97412109	4.15686274
1065.97839355	3.88235283
1065.98229980	3.66666675
1065.98645020	2.37254906
1065.99060059	0.64705884
1065.99060059	0.01960784
1065.99462891	0.03921569
1065.99877930	0.01960784
1066.00280762	0.01960784
1066.00280762	0.01960784
1066.00695801	0.01960784
1066.01098633	0.01960784
1066.01513672	0.01960784
1066.01928711	0.01960784
1066.01928711	0.01960784
1066.02331543	0.17647059
1066.02746582	0.01960784
1066.03161621	0.01960784
1066.03161621	0.01960784
1066.03564453	0.01960784
1066.03979492	0.01960784
1066.04406738	0.01960784
1066.04821777	0.01960784
1066.04821777	0.01960784
1066.05212402	0.01960784
1066.05615234	0.01960784
1066.06018066	0.01960784
1066.06018066	0.01960784
1066.06433105	0.01960784
1066.06835938	0.01960784
1066.07238770	0.01960784
1066.07666016	0.01960784
1066.07666016	0.01960784
1066.08068848	0.01960784
1066.08483887	0.01960784
1066.08886719	0.01960784
1066.08886719	0.01960784
1066.09301758	0.01960784
1066.09716797	0.01960784
1066.10119629	0.01960784
1066.10522461	0.01960784
1066.10522461	0.01960784
1066.10925293	0.01960784
1066.11352539	0.01960784
1066.11755371	0.01960784
1066.11755371	0.01960784
1066.12170410	0.01960784
1066.12585449	0.01960784
1066.13000488	0.01960784
1066.13391113	1.15686274
1066.13806152	2.21568632
1066.14208984	3.39215684
1066.14624023	3.84313726
1066.14624023	3.76470590
1066.15026855	3.21568632
1066.15441895	2.25490189
1066.15856934	1.35294116
1066.16271973	0.78431374
1066.16674805	0.27450982
1066.17089844	0.01960784
1066.17492676	0.13725491
1066.17492676	0.01960784
1066.17919922	0.01960784
1066.18298340	0.07843138
1066.18713379	0.39215687
1066.19128418	0.49019608
1066.19543457	0.94117647
1066.19946289	1.01960790
1066.20361328	1.27450979
1066.20361328	1.66666663
1066.20788574	1.90196073
1066.21179199	1.76470590
1066.21569824	1.49019611
1066.21984863	2.19607854
1066.22412109	2.05882359
1066.22814941	1.76470590
1066.23217773	1.56862748
1066.23217773	1.54901958
1066.23669434	1.96078432
1066.24047852	2.13725495
1066.24450684	2.00000000
1066.24450684	1.66666663
1066.24865723	1.74509799
1066.25292969	1.94117641
1066.25671387	1.86274505
1066.26086426	1.96078432
1066.26086426	2.25490189
1066.26501465	2.03921580
1066.26904297	1.76470590
1066.27319336	1.92156863
1066.27319336	2.01960778
1066.27722168	1.68627453
1066.28149414	1.49019611
1066.28540039	1.31372547
1066.28955078	1.21568632
1066.28955078	1.84313726
1066.29370117	1.92156863
1066.29797363	2.66666675
1066.30187988	3.13725495
1066.30187988	2.92156863
1066.30590820	2.72549009
1066.31005859	2.78431368
1066.31420898	2.33333325
1066.31823730	2.13725495
1066.31823730	2.70588231
1066.32226563	2.58823538
1066.32641602	2.45098042
1066.33056641	2.23529410
1066.33056641	2.00000000
1066.33471680	1.84313726
1066.33874512	2.00000000
1066.34277344	1.88235295
1066.34692383	2.31372547
1066.34692383	2.56862736
1066.35107422	2.92156863
1066.35510254	2.72549009
1066.35913086	2.52941179
1066.35913086	2.64705873
1066.36352539	2.98039222
1066.36743164	2.64705873
1066.37158203	2.70588231
1066.37548828	3.25490189
1066.37548828	3.56862736
1066.38000488	3.49019599
1066.38403320	3.01960778
1066.38793945	2.70588231
1066.38793945	2.56862736
1066.39196777	2.56862736
1066.39599609	2.82352948
1066.40014648	3.19607854
1066.40429688	3.35294127
1066.40429688	3.43137264
1066.40832520	3.07843137
1066.41259766	2.96078420
1066.41650391	3.05882359
1066.41650391	2.92156863
1066.42065430	2.80392146
1066.42480469	3.29411769
1066.42895508	3.49019599
1066.43286133	3.31372547
1066.43286133	3.54901958
1066.43688965	3.62745094
1066.44104004	3.72549009
1066.44519043	3.60784316
1066.44519043	3.50980401
1066.44921875	3.86274505
1066.45373535	3.49019599
1066.45751953	2.66666675
1066.46154785	2.52941179
1066.46154785	2.50980401
1066.46569824	1.88235295
1066.46972656	1.58823526
1066.47387695	1.80392158
1066.47387695	2.23529410
1066.47790527	3.01960778
1066.48193359	3.90196085
1066.48608398	4.98039198
1066.49023438	4.98039198
1066.49438477	4.98039198
1066.49841309	4.98039198
1066.50244141	4.98039198
1066.50244141	4.98039198
1066.50659180	4.98039198
1066.51074219	3.60784316
1066.51489258	1.88235295
1066.51879883	0.64705884
1066.52294922	0.68627453
1066.52709961	0.68627453
1066.53125000	0.76470590
1066.53125000	0.23529412
1066.53527832	0.01960784
1066.53930664	0.01960784
1066.54345703	0.01960784
1066.54760742	0.05882353
1066.55175781	0.49019608
1066.55566406	0.62745100
1066.55993652	0.43137255
1066.55993652	0.94117647
1066.56408691	0.82352942
1066.56799316	0.86274511
1066.57214355	0.78431374
1066.57629395	0.62745100
1066.58044434	0.47058824
1066.58447266	0.50980395
1066.58862305	0.86274511
1066.58862305	0.98039216
1066.59265137	0.58823532
1066.59667969	0.41176471
1066.60083008	0.62745100
1066.60083008	0.62745100
1066.60485840	0.86274511
1066.60900879	0.43137255
1066.61364746	0.37254903
1066.61730957	0.33333334
1066.61730957	0.45098040
1066.62145996	0.60784316
1066.62524414	0.88235295
1066.63000488	1.03921568
1066.63000488	1.00000000
1066.63366699	0.86274511
1066.63769531	0.54901963
1066.64172363	0.78431374
1066.64599609	0.84313726
1066.64599609	0.94117647
1066.65002441	0.86274511
1066.65405273	0.90196079
1066.65820313	0.92156863
1066.65820313	1.29411769
1066.66247559	1.07843137
1066.66638184	1.15686274
1066.67041016	1.41176474
1066.67456055	0.96078432
1066.67456055	0.70588237
1066.67895508	0.43137255
1066.68273926	0.13725491
1066.68688965	0.01960784
1066.68688965	0.01960784
1066.69104004	0.01960784
1066.69506836	0.01960784
1066.69921875	0.01960784
1066.70324707	0.29411766
1066.70324707	0.01960784
1066.70727539	0.01960784
1066.71166992	0.01960784
1066.71557617	0.15686275
1066.71557617	0.01960784
1066.71960449	0.01960784
1066.72375488	0.01960784
1066.72790527	0.01960784
1066.73193359	0.01960784
1066.73193359	0.09803922
1066.73596191	0.01960784
1066.74011230	0.03921569
1066.74426270	0.54901963
1066.74426270	0.86274511
1066.74816895	0.45098040
1066.75256348	0.21568628
1066.75671387	0.13725491
1066.76086426	0.23529412
1066.76086426	0.25490198
1066.76501465	0.13725491
1066.76892090	0.49019608
1066.77307129	0.74509805
1066.77307129	0.78431374
1066.77722168	0.58823532
1066.78125000	0.74509805
1066.78527832	0.88235295
1066.78942871	0.84313726
1066.78942871	0.05882353
1066.79357910	0.01960784
1066.79772949	0.41176471
1066.80187988	0.84313726
1066.80187988	0.64705884
1066.80603027	0.62745100
1066.80993652	0.01960784
1066.81408691	0.01960784
1066.81823730	0.01960784
1066.81823730	0.01960784
1066.82214355	0.01960784
1066.82641602	0.01960784
1066.83032227	0.84313726
1066.83032227	1.84313726
1066.83435059	2.66666675
1066.83825684	4.33333349
1066.84240723	4.98039198
1066.84667969	4.98039198
1066.85070801	4.98039198
1066.85473633	4.98039198
1066.85876465	4.49019623
1066.85876465	3.58823538
1066.86315918	2.11764717
1066.86706543	0.72549021
1066.87121582	0.01960784
1066.87524414	0.03921569
1066.87963867	0.01960784
1066.88366699	0.01960784
1066.88793945	0.01960784
1066.88793945	0.01960784
1066.89172363	0.01960784
1066.89587402	0.01960784
1066.89990234	0.01960784
1066.90393066	0.01960784
1066.90795898	0.01960784
1066.91235352	0.01960784
1066.91625977	0.01960784
1066.91625977	0.43137255
1066.92041016	0.80392158
1066.92456055	0.01960784
1066.92846680	0.01960784
1066.93273926	0.01960784
1066.93664551	0.01960784
1066.94091797	0.01960784
1066.94506836	0.01960784
1066.94506836	0.01960784
1066.94921875	0.01960784
1066.95312500	0.01960784
1066.95727539	0.01960784
1066.96130371	0.01960784
1066.96533203	0.01960784
1066.96948242	0.01960784
1066.97363281	0.01960784
1066.97363281	0.01960784
1066.97790527	0.01960784
1066.98168945	0.01960784
1066.98583984	0.01960784
1066.98583984	0.01960784
1066.98999023	0.01960784
1066.99414063	0.01960784
1066.99816895	0.01960784
1067.00219727	0.01960784
1067.00219727	0.01960784
1067.00634766	0.01960784
1067.01074219	0.01960784
1067.01464844	0.01960784
1067.01464844	0.01960784
1067.01879883	0.01960784
1067.02270508	0.01960784
1067.02685547	0.01960784
1067.03100586	0.01960784
1067.03100586	0.01960784
1067.03503418	0.01960784
1067.03906250	0.01960784
1067.04321289	0.01960784
1067.04321289	0.01960784
1067.04748535	0.01960784
1067.05126953	0.01960784
1067.05541992	0.01960784
1067.05969238	0.01960784
1067.05969238	0.01960784
1067.06372070	0.01960784
1067.06787109	0.01960784
1067.07189941	0.01960784
1067.07189941	0.01960784
1067.07629395	0.01960784
1067.08032227	0.01960784
1067.08435059	0.01960784
1067.08837891	0.01960784
1067.08837891	0.01960784
1067.09240723	0.01960784
1067.09667969	0.01960784
1067.10058594	0.01960784
1067.10058594	0.01960784
1067.10473633	0.01960784
1067.10876465	0.01960784
1067.11279297	0.01960784
1067.11694336	0.01960784
1067.11694336	0.01960784
1067.12109375	0.01960784
1067.12512207	0.01960784
1067.12951660	0.01960784
1067.12951660	0.01960784
1067.13330078	0.01960784
1067.13745117	0.01960784
1067.14147949	0.01960784
1067.14587402	0.01960784
1067.14587402	0.01960784
1067.14978027	0.01960784
1067.15380859	0.01960784
1067.15795898	0.01960784
1067.15795898	0.01960784
1067.16198730	0.01960784
1067.16613770	0.01960784
1067.17016602	0.01960784
1067.17431641	0.01960784
1067.17431641	0.01960784
1067.17834473	0.01960784
1067.18249512	0.01960784
1067.18664551	0.33333334
1067.18664551	0.74509805
1067.19067383	1.62745094
1067.19470215	2.62745094
1067.19885254	2.80392146
1067.20300293	2.56862736
1067.20739746	1.88235295
1067.21130371	0.58823532
1067.21533203	0.01960784
1067.21533203	0.01960784
1067.21936035	0.01960784
1067.22351074	0.01960784
1067.22778320	0.01960784
1067.23181152	0.01960784
1067.23571777	0.01960784
1067.23986816	0.01960784
1067.24414063	0.01960784
1067.24414063	0.01960784
1067.24804688	0.01960784
1067.25207520	0.01960784
1067.25622559	0.01960784
1067.26037598	0.01960784
1067.26440430	0.01960784
1067.26855469	0.01960784
1067.27294922	0.01960784
1067.27294922	0.01960784
1067.27697754	0.01960784
1067.28100586	0.01960784
1067.28527832	0.01960784
1067.28918457	0.01960784
1067.29333496	0.01960784
1067.29748535	0.01960784
1067.30163574	0.01960784
1067.30163574	0.01960784
1067.30554199	0.01960784
1067.30969238	0.01960784
1067.31384277	0.01960784
1067.31799316	0.01960784
1067.32189941	0.01960784
1067.32592773	0.01960784
1067.33007813	0.01960784
1067.33007813	0.01960784
1067.33410645	0.01960784
1067.33813477	0.01960784
1067.34216309	0.01960784
1067.34216309	0.01960784
1067.34631348	0.01960784
1067.35046387	0.01960784
1067.35473633	0.01960784
1067.35864258	0.01960784
1067.35864258	0.01960784
1067.36291504	0.01960784
1067.36682129	0.01960784
1067.37097168	0.01960784
1067.37097168	0.01960784
1067.37500000	0.01960784
1067.37939453	0.01960784
1067.38342285	0.01960784
1067.38757324	0.01960784
1067.38757324	0.01960784
1067.39135742	0.01960784
1067.39562988	0.01960784
1067.39978027	0.01960784
1067.39978027	0.01960784
1067.40368652	0.01960784
1067.40771484	0.01960784
1067.41186523	0.58823532
1067.41601563	0.27450982
1067.41601563	0.01960784
1067.42016602	0.01960784
1067.42419434	0.01960784
1067.42834473	0.01960784
1067.42834473	0.03921569
1067.43237305	0.01960784
1067.43640137	0.01960784
1067.44055176	0.01960784
1067.44494629	0.01960784
1067.44494629	0.01960784
1067.44897461	0.01960784
1067.45336914	0.01960784
1067.45703125	0.52941179
1067.45703125	0.05882353
1067.46105957	0.01960784
1067.46508789	0.01960784
1067.46923828	0.01960784
1067.47338867	0.27450982
1067.47338867	0.50980395
1067.47753906	0.62745100
1067.48144531	0.47058824
1067.48571777	0.03921569
1067.48571777	0.01960784
1067.48974609	0.01960784
1067.49389648	0.01960784
1067.49792480	0.01960784
1067.50195313	0.01960784
1067.50195313	0.21568628
1067.50610352	0.07843138
1067.51049805	0.01960784
1067.51452637	0.01960784
1067.51452637	0.01960784
1067.51843262	0.01960784
1067.52246094	0.01960784
1067.52661133	0.01960784
1067.53076172	0.01960784
1067.53076172	0.25490198
1067.53479004	1.43137252
1067.53881836	2.45098042
1067.54296875	2.31372547
1067.54296875	3.11764717
1067.54711914	4.60784292
1067.55114746	4.50980377
1067.55517578	4.39215708
1067.55932617	3.11764717
1067.56347656	2.05882359
1067.56774902	1.92156863
1067.57177734	0.37254903
1067.57177734	0.01960784
1067.57568359	0.01960784
1067.58007813	0.31372550
1067.58410645	0.15686275
1067.58813477	0.01960784
1067.59216309	0.01960784
1067.59631348	0.03921569
1067.60034180	0.01960784
1067.60034180	0.11764706
1067.60461426	0.33333334
1067.60852051	0.47058824
1067.61279297	0.78431374
1067.61669922	0.52941179
1067.62084961	0.39215687
1067.62475586	0.68627453
1067.62939453	1.11764705
1067.62939453	1.29411769
1067.63317871	1.64705884
1067.63720703	1.94117641
1067.64135742	1.80392158
1067.64562988	2.52941179
1067.64965820	2.41176462
1067.65380859	1.35294116
1067.65783691	1.15686274
1067.65783691	1.45098042
1067.66174316	2.15686274
1067.66589355	2.98039222
1067.66992188	3.33333325
1067.67407227	2.39215684
1067.67810059	2.05882359
1067.68225098	2.43137264
1067.68627930	3.09803915
1067.68627930	3.49019599
1067.69055176	3.41176462
1067.69458008	3.68627453
1067.69873047	3.70588231
1067.69873047	3.35294127
1067.70275879	3.62745094
1067.70678711	3.76470590
1067.71093750	3.86274505
1067.71533203	3.62745094
1067.71533203	3.82352948
1067.71936035	4.64705896
1067.72326660	4.88235283
1067.72741699	2.94117641
1067.72741699	2.45098042
1067.73144531	2.76470590
1067.73559570	2.80392146
1067.73962402	2.76470590
1067.74365234	2.86274505
1067.74365234	3.09803915
1067.74780273	2.64705873
1067.75183105	2.58823538
1067.75598145	2.39215684
1067.75598145	2.76470590
1067.76025391	3.70588231
1067.76428223	3.94117641
1067.76818848	3.37254906
1067.77233887	2.50980401
1067.77233887	2.86274505
1067.77673340	3.03921580
1067.78088379	2.70588231
1067.78479004	2.68627453
1067.78479004	2.94117641
1067.78869629	3.03921580
1067.79284668	2.98039222
1067.79699707	2.92156863
1067.80114746	2.50980401
1067.80114746	2.96078420
1067.80517578	4.03921556
1067.80920410	4.25490189
1067.81347656	4.43137264
1067.81347656	4.00000000
1067.81750488	3.88235283
1067.82141113	3.92156863
1067.82568359	4.47058821
1067.82995605	4.98039198
1067.82995605	4.74509811
1067.83386230	4.66666651
1067.83789063	4.88235283
1067.84204102	4.96078444
1067.84204102	4.80392170
1067.84631348	4.56862736
1067.85034180	4.33333349
1067.85437012	4.49019623
1067.85827637	4.11764717
1067.85827637	3.86274505
1067.86267090	3.56862736
1067.86657715	3.23529410
1067.87072754	2.94117641
1067.87072754	3.11764717
1067.87463379	3.76470590
1067.87902832	3.09803915
1067.88305664	2.27450991
1067.88708496	2.35294127
1067.88708496	3.01960778
1067.89123535	4.33333349
1067.89526367	4.98039198
1067.89941406	4.98039198
1067.89941406	4.98039198
1067.90356445	4.98039198
1067.90771484	4.98039198
1067.91198730	4.98039198
1067.91601563	4.74509811
1067.91601563	2.88235283
1067.92004395	1.56862748
1067.92407227	0.82352942
1067.92822266	0.21568628
1067.92822266	0.01960784
1067.93212891	0.01960784
1067.93615723	0.09803922
1067.94030762	0.25490198
1067.94458008	0.88235295
1067.94848633	0.33333334
1067.95263672	0.01960784
1067.95666504	0.03921569
1067.95666504	0.15686275
1067.96081543	0.39215687
1067.96484375	0.66666669
1067.96899414	0.82352942
1067.97314453	1.09803927
1067.97717285	1.17647064
1067.98120117	1.21568632
1067.98559570	1.35294116
1067.98559570	1.50980389
1067.98974609	1.80392158
1067.99389648	1.78431368
1067.99804688	1.98039210
1068.00195313	2.43137264
1068.00610352	3.01960778
1068.01025391	3.45098042
1068.01440430	3.29411769
1068.01440430	3.09803915
1068.01831055	2.92156863
1068.02233887	2.74509811
1068.02648926	2.96078420
1068.03063965	3.21568632
1068.03466797	2.96078420
1068.03881836	3.37254906
1068.04296875	3.60784316
1068.04296875	3.60784316
1068.04711914	3.09803915
1068.05114746	2.92156863
1068.05517578	3.27450991
1068.05920410	3.37254906
1068.06323242	3.54901958
1068.06738281	3.54901958
1068.07141113	3.64705873
1068.07141113	3.64705873
1068.07556152	3.56862736
1068.07958984	3.49019599
1068.08374023	3.27450991
1068.08374023	3.07843137
1068.08764648	3.00000000
1068.09204102	2.98039222
1068.09606934	3.03921580
1068.10009766	3.37254906
1068.10009766	3.64705873
1068.10424805	3.31372547
1068.10827637	2.78431368
1068.11254883	2.54901958
1068.11254883	2.37254906
1068.11657715	2.09803915
1068.12084961	2.07843137
1068.12487793	2.01960778
1068.12890625	1.88235295
1068.12890625	1.74509799
1068.13305664	1.72549021
1068.13720703	1.94117641
1068.14111328	2.00000000
1068.14111328	2.13725495
1068.14514160	2.35294127
1068.14916992	2.45098042
1068.15332031	2.31372547
1068.15747070	2.09803915
1068.15747070	2.19607854
1068.16149902	2.15686274
1068.16564941	2.01960778
1068.16967773	1.84313726
1068.16967773	1.90196073
1068.17395020	1.90196073
1068.17785645	2.09803915
1068.18200684	1.74509799
1068.18615723	1.70588231
1068.18615723	1.88235295
1068.19030762	2.23529410
1068.19433594	1.96078432
1068.19836426	1.72549021
1068.19836426	1.72549021
1068.20263672	1.60784316
1068.20678711	1.72549021
1068.21081543	2.15686274
1068.21496582	2.27450991
1068.21496582	1.88235295
1068.21887207	1.49019611
1068.22302246	1.00000000
1068.22705078	0.64705884
1068.22705078	0.60784316
1068.23107910	0.49019608
1068.23522949	0.98039216
1068.23937988	1.96078432
1068.24353027	3.11764717
1068.24353027	4.21568632
1068.24768066	4.98039198
1068.25183105	4.98039198
1068.25573730	4.98039198
1068.25573730	4.74509811
1068.25988770	4.41176462
1068.26403809	3.86274505
1068.26818848	2.64705873
1068.27233887	1.60784316
1068.27233887	0.56862748
1068.27648926	0.01960784
1068.28051758	0.13725491
1068.28479004	0.27450982
1068.28479004	0.03921569
1068.28869629	0.01960784
1068.29272461	0.01960784
1068.29699707	0.01960784
1068.30102539	0.47058824
1068.30505371	0.31372550
1068.30920410	0.31372550
1068.31335449	0.84313726
1068.31335449	0.05882353
1068.31738281	0.01960784
1068.32153320	0.01960784
1068.32556152	0.15686275
1068.32971191	0.15686275
1068.33386230	0.82352942
1068.33801270	1.07843137
1068.34179688	0.74509805
1068.34179688	1.21568632
1068.34582520	1.49019611
1068.34997559	0.82352942
1068.35412598	0.82352942
1068.35815430	1.62745094
1068.36230469	1.66666663
1068.36633301	1.43137252
1068.37048340	2.35294127
1068.37048340	2.60784316
1068.37438965	3.07843137
1068.37878418	3.62745094
1068.38281250	3.29411769
1068.38684082	2.92156863
1068.39086914	3.31372547
1068.39514160	3.82352948
1068.39929199	3.90196085
1068.39929199	3.64705873
1068.40344238	3.68627453
1068.40759277	4.25490189
1068.41162109	4.21568632
1068.41564941	4.43137264
1068.41967773	4.80392170
1068.42370605	4.98039198
1068.42785645	4.98039198
1068.42785645	4.52941179
1068.43176270	4.29411745
1068.43603516	4.45098019
1068.44006348	3.98039222
1068.44006348	3.25490189
1068.44421387	3.92156863
1068.44824219	4.94117641
1068.45239258	4.98039198
1068.45642090	4.98039198
1068.45642090	4.98039198
1068.46057129	4.98039198
1068.46472168	4.98039198
1068.46875000	4.98039198
1068.46875000	4.90196085
1068.47290039	4.60784292
1068.47692871	4.84313726
1068.48107910	4.98039198
1068.48510742	4.98039198
1068.48510742	4.98039198
1068.48925781	4.98039198
1068.49328613	4.98039198
1068.49755859	4.98039198
1068.49755859	4.98039198
1068.50158691	4.98039198
1068.50573730	4.78431368
1068.50964355	4.96078444
1068.51391602	4.98039198
1068.51391602	4.49019623
1068.51794434	4.07843161
1068.52197266	4.39215708
1068.52612305	4.43137264
1068.52612305	4.29411745
1068.53027344	3.98039222
1068.53430176	3.37254906
1068.53833008	2.66666675
1068.54248047	1.54901958
1068.54248047	0.21568628
1068.54675293	0.03921569
1068.55078125	0.70588237
1068.55480957	0.98039216
1068.55480957	0.01960784
1068.55883789	0.01960784
1068.56311035	0.01960784
1068.56713867	0.01960784
1068.57116699	0.01960784
1068.57116699	0.01960784
1068.57531738	0.01960784
1068.57946777	0.01960784
1068.58349609	0.01960784
1068.58349609	0.01960784
1068.58764648	0.01960784
1068.59179688	0.01960784
1068.59582520	0.23529412
1068.59985352	1.03921568
1068.59985352	2.09803915
1068.60400391	2.23529410
1068.60803223	0.45098040
1068.61230469	0.01960784
1068.61230469	0.01960784
1068.61621094	0.01960784
1068.62036133	0.01960784
1068.62438965	0.01960784
1068.62854004	0.01960784
1068.62854004	0.01960784
1068.63256836	0.01960784
1068.63671875	0.01960784
1068.64086914	0.01960784
1068.64086914	0.01960784
1068.64477539	0.01960784
1068.64892578	0.01960784
1068.65307617	0.01960784
1068.65722656	0.01960784
1068.65722656	0.01960784
1068.66113281	0.01960784
1068.66540527	0.01960784
1068.66967773	0.01960784
1068.66967773	0.01960784
1068.67358398	0.01960784
1068.67785645	0.01960784
1068.68176270	0.01960784
1068.68579102	0.01960784
1068.68994141	0.01960784
1068.69409180	0.01960784
1068.69824219	0.01960784
1068.69824219	0.01960784
1068.70227051	0.01960784
1068.70629883	0.01960784
1068.71044922	0.01960784
1068.71447754	0.01960784
1068.71887207	0.01960784
1068.72265625	0.01960784
1068.72692871	0.01960784
1068.72692871	0.01960784
1068.73107910	0.01960784
1068.73498535	0.01960784
1068.73913574	0.01960784
1068.74316406	0.01960784
1068.74743652	0.01960784
1068.75134277	0.01960784
1068.75549316	1.66666663
1068.75549316	4.31372547
1068.75952148	4.98039198
1068.76367188	4.98039198
1068.76782227	4.98039198
1068.77185059	4.98039198
1068.77600098	4.98039198
1068.78015137	4.98039198
1068.78417969	4.98039198
1068.78417969	4.98039198
1068.78833008	4.98039198
1068.79248047	4.98039198
1068.79663086	4.98039198
1068.79663086	4.98039198
1068.80090332	4.98039198
1068.80480957	4.98039198
1068.80883789	4.98039198
1068.81286621	4.98039198
1068.81286621	4.98039198
1068.81701660	4.98039198
1068.82104492	4.98039198
1068.82507324	4.98039198
1068.82507324	4.98039198
1068.82934570	4.98039198
1068.83337402	4.98039198
1068.83740234	4.98039198
1068.84167480	4.98039198
1068.84167480	4.98039198
1068.84594727	4.98039198
1068.84973145	4.92156839
1068.85375977	4.68627453
1068.85375977	4.43137264
1068.85803223	4.25490189
1068.86206055	3.88235283
1068.86608887	3.01960778
1068.87023926	2.23529410
1068.87023926	1.94117641
1068.87426758	1.00000000
1068.87829590	0.01960784
1068.88256836	0.03921569
1068.88256836	0.01960784
1068.88659668	0.01960784
1068.89074707	0.01960784
1068.89477539	0.01960784
1068.89892578	0.01960784
1068.89892578	0.01960784
1068.90295410	0.01960784
1068.90710449	0.01960784
1068.91125488	0.01960784
1068.91125488	0.01960784
1068.91528320	0.01960784
1068.91943359	0.01960784
1068.92346191	0.01960784
1068.92761230	0.01960784
1068.92761230	0.01960784
1068.93176270	0.27450982
1068.93579102	0.35294119
1068.93994141	1.17647064
1068.93994141	2.60784316
1068.94421387	4.13725471
1068.94799805	4.98039198
1068.95214844	4.98039198
1068.95617676	4.98039198
1068.95617676	4.98039198
1068.96057129	4.98039198
1068.96447754	4.98039198
1068.96850586	4.98039198
1068.96850586	4.98039198
1068.97253418	4.98039198
1068.97680664	4.98039198
1068.98107910	4.98039198
1068.98510742	4.98039198
1068.98510742	4.98039198
1068.98925781	4.98039198
1068.99328613	4.98039198
1068.99743652	4.98039198
1068.99743652	4.98039198
1069.00134277	4.98039198
1069.00537109	4.98039198
1069.00939941	4.98039198
1069.01379395	4.98039198
1069.01379395	4.98039198
1069.01770020	4.98039198
1069.02172852	4.98039198
1069.02587891	4.98039198
1069.02587891	4.98039198
1069.03015137	4.98039198
1069.03393555	4.98039198
1069.03808594	4.98039198
1069.04223633	4.98039198
1069.04650879	4.98039198
1069.05053711	4.98039198
1069.05480957	4.98039198
1069.05480957	4.98039198
1069.05908203	4.98039198
1069.06274414	4.98039198
1069.06689453	3.58823538
1069.07092285	0.01960784
1069.07495117	0.01960784
1069.07922363	0.01960784
1069.08325195	0.01960784
1069.08325195	0.01960784
1069.08740234	0.01960784
1069.09130859	0.01960784
1069.09570313	0.01960784
1069.09960938	0.01960784
1069.10375977	0.01960784
1069.10778809	0.01960784
1069.11181641	0.01960784
1069.11181641	0.01960784
1069.11596680	0.01960784
1069.12011719	0.01960784
1069.12414551	0.01960784
1069.12829590	0.01960784
1069.13244629	0.01960784
1069.13647461	0.01960784
1069.14062500	0.01960784
1069.14062500	0.01960784
1069.14477539	0.01960784
1069.14868164	0.01960784
1069.15283203	0.01960784
1069.15698242	0.01960784
1069.16101074	0.01960784
1069.16528320	0.01960784
1069.16918945	0.01960784
1069.16918945	0.01960784
1069.17333984	0.01960784
1069.17736816	0.01960784
1069.18151855	0.01960784
1069.18151855	0.01960784
1069.18566895	0.01960784
1069.18969727	0.01960784
1069.19384766	0.01960784
1069.19812012	0.01960784
1069.19812012	0.01960784
1069.20202637	0.01960784
1069.20605469	0.01960784
1069.21020508	0.01960784
1069.21020508	0.01960784
1069.21423340	0.01960784
1069.21838379	0.01960784
1069.22253418	0.01960784
1069.22668457	0.01960784
1069.22668457	0.01960784
1069.23083496	0.01960784
1069.23474121	0.01960784
1069.23889160	0.01960784
1069.23889160	0.01960784
1069.24304199	0.01960784
1069.24731445	0.01960784
1069.25134277	0.01960784
1069.25537109	0.01960784
1069.25537109	0.01960784
1069.25939941	0.01960784
1069.26367188	0.01960784
1069.26757813	4.98039198
1069.26757813	4.98039198
1069.27172852	4.98039198
1069.27575684	4.98039198
1069.27978516	4.98039198
1069.28405762	4.98039198
1069.28405762	4.98039198
1069.28808594	4.98039198
1069.29211426	4.98039198
1069.29626465	4.98039198
1069.29626465	4.98039198
1069.30041504	4.98039198
1069.30444336	4.98039198
1069.30847168	4.98039198
1069.31286621	4.98039198
1069.31286621	4.98039198
1069.31689453	4.98039198
1069.32104492	4.98039198
1069.32495117	4.98039198
1069.32495117	4.98039198
1069.32897949	4.98039198
1069.33312988	4.98039198
1069.33715820	4.98039198
1069.34118652	4.98039198
1069.34118652	4.98039198
1069.34533691	4.98039198
1069.34948730	4.98039198
1069.35363770	4.98039198
1069.35363770	4.98039198
1069.35766602	4.98039198
1069.36169434	4.98039198
1069.36596680	4.98039198
1069.36999512	4.98039198
1069.36999512	4.98039198
1069.37414551	4.98039198
1069.37829590	4.98039198
1069.38244629	4.98039198
1069.38244629	4.98039198
1069.38659668	4.98039198
1069.39074707	4.98039198
1069.39453125	4.98039198
1069.39880371	4.98039198
1069.39880371	4.98039198
1069.40270996	4.98039198
1069.40686035	4.98039198
1069.41101074	4.98039198
1069.41101074	4.98039198
1069.41503906	4.98039198
1069.41906738	4.98039198
1069.42321777	4.98039198
1069.42736816	4.98039198
1069.43139648	4.98039198
1069.43542480	4.98039198
1069.43957520	4.98039198
1069.43957520	4.98039198
1069.44372559	4.98039198
1069.44775391	4.98039198
1069.45178223	4.98039198
1069.45617676	4.98039198
1069.46032715	4.98039198
1069.46435547	4.98039198
1069.46850586	4.98039198
1069.46850586	4.98039198
1069.47241211	4.98039198
1069.47656250	4.98039198
1069.48071289	4.98039198
1069.48474121	4.98039198
1069.48864746	4.98039198
1069.49279785	4.98039198
1069.49694824	4.98039198
1069.49694824	4.98039198
1069.50097656	4.98039198
1069.50512695	4.98039198
1069.50915527	4.98039198
1069.51354980	4.98039198
1069.51733398	4.98039198
1069.52148438	4.98039198
1069.52575684	4.98039198
1069.52575684	4.98039198
1069.53002930	4.98039198
1069.53442383	4.98039198
1069.53796387	4.98039198
1069.54211426	4.98039198
1069.54614258	4.98039198
1069.55017090	4.98039198
1069.55432129	4.98039198
1069.55432129	4.98039198
1069.55834961	4.98039198
1069.56274414	4.98039198
1069.56665039	4.98039198
1069.56665039	4.98039198
1069.57067871	4.98039198
1069.57470703	4.98039198
1069.57910156	4.98039198
1069.58312988	4.98039198
1069.58312988	4.98039198
1069.58715820	4.98039198
1069.59106445	4.98039198
1069.59558105	4.98039198
1069.59558105	4.98039198
1069.59960938	4.98039198
1069.60375977	4.98039198
1069.60766602	4.98039198
1069.61193848	4.98039198
1069.61193848	4.98039198
1069.61596680	4.98039198
1069.62011719	4.98039198
1069.62426758	4.98039198
1069.62426758	4.98039198
1069.62817383	4.98039198
1069.63232422	4.98039198
1069.63647461	4.98039198
1069.64050293	4.98039198
1069.64050293	4.98039198
1069.64465332	4.98039198
1069.64868164	4.98039198
1069.65283203	4.98039198
1069.65283203	4.98039198
1069.65673828	4.98039198
1069.66064453	4.98039198
1069.66491699	4.98039198
1069.66894531	4.98039198
1069.66894531	4.98039198
1069.67309570	4.98039198
1069.67712402	4.98039198
1069.68127441	4.98039198
1069.68127441	4.98039198
1069.68530273	4.98039198
1069.68945313	4.98039198
1069.69360352	4.98039198
1069.69775391	4.98039198
1069.69775391	4.98039198
1069.70166016	4.98039198
1069.70593262	4.98039198
1069.71020508	4.98039198
1069.71020508	4.98039198
1069.71435547	4.98039198
1069.71838379	4.98039198
1069.72253418	4.98039198
1069.72644043	4.98039198
1069.72644043	4.98039198
1069.73059082	4.98039198
1069.73449707	4.98039198
1069.73864746	4.98039198
1069.73864746	4.98039198
1069.74279785	4.98039198
1069.74682617	4.98039198
1069.75085449	4.98039198
1069.75500488	4.98039198
1069.75500488	4.98039198
1069.75903320	4.98039198
1069.76354980	4.98039198
1069.76745605	4.98039198
1069.76745605	4.98039198
1069.77136230	4.98039198
1069.77539063	4.98039198
1069.77978516	4.98039198
1069.78381348	4.98039198
1069.78381348	4.98039198
1069.78784180	4.98039198
1069.79187012	4.98039198
1069.79614258	4.98039198
1069.79614258	4.98039198
1069.80017090	4.98039198
1069.80419922	4.98039198
1069.80822754	4.98039198
1069.81250000	4.98039198
1069.81652832	4.98039198
1069.82043457	4.98039198
1069.82470703	4.98039198
1069.82470703	4.98039198
1069.82873535	4.98039198
1069.83288574	4.98039198
1069.83703613	4.98039198
1069.84094238	4.98039198
1069.84509277	4.98039198
1069.84948730	4.98039198
1069.85363770	4.98039198
1069.85363770	4.98039198
1069.85766602	4.98039198
1069.86169434	4.98039198
1069.86596680	4.98039198
1069.86999512	4.98039198
1069.87390137	4.98039198
1069.87805176	4.98039198
1069.88220215	4.98039198
1069.88220215	4.98039198
1069.88635254	4.98039198
1069.89050293	4.98039198
1069.89453125	4.98039198
1069.89855957	4.98039198
1069.90270996	4.98039198
1069.90686035	4.98039198
1069.91101074	4.98039198
1069.91101074	4.98039198
1069.91503906	4.98039198
1069.91894531	4.98039198
1069.92297363	4.98039198
1069.92712402	4.98039198
1069.93115234	4.98039198
1069.93518066	4.98039198
1069.93933105	4.98039198
1069.93933105	4.98039198
1069.94348145	4.98039198
1069.94750977	4.98039198
1069.95178223	4.98039198
1069.95178223	4.98039198
1069.95581055	4.98039198
1069.95983887	4.98039198
1069.96386719	4.98039198
1069.96826172	4.98039198
1069.96826172	4.98039198
1069.97241211	4.98039198
1069.97644043	4.98039198
1069.98059082	4.98039198
1069.98059082	4.98039198
1069.98449707	4.98039198
1069.98876953	4.98039198
1069.99279785	4.98039198
1069.99694824	4.98039198
1069.99694824	4.98039198
1070.00097656	4.98039198
1070.00500488	4.98039198
1070.00927734	4.98039198
1070.00927734	4.98039198
1070.01342773	4.98039198
1070.01745605	4.98039198
1070.02148438	4.98039198
1070.02563477	4.98039198
1070.02563477	4.98039198
1070.02978516	4.98039198
1070.03381348	4.98039198
1070.03796387	4.98039198
1070.03796387	4.98039198
1070.04174805	4.98039198
1070.04589844	4.98039198
1070.04992676	4.98039198
1070.05407715	4.98039198
1070.05407715	4.98039198
1070.05810547	4.98039198
1070.06262207	4.98039198
1070.06640625	4.98039198
1070.06640625	4.98039198
1070.07055664	4.98039198
1070.07446289	4.98039198
1070.07885742	4.98039198
1070.08276367	4.98039198
1070.08276367	4.98039198
1070.08691406	4.98039198
1070.09082031	4.98039198
1070.09497070	4.98039198
1070.09497070	4.98039198
1070.09912109	4.98039198
1070.10351563	4.98039198
1070.10742188	4.98039198
1070.11132813	4.98039198
1070.11132813	4.98039198
1070.11560059	4.98039198
1070.11962891	4.98039198
1070.12365723	4.98039198
1070.12365723	4.98039198
1070.12768555	4.98039198
1070.13183594	4.98039198
1070.13586426	4.98039198
1070.14001465	4.98039198
1070.14001465	4.98039198
1070.14416504	4.98039198
1070.14819336	4.98039198
1070.15234375	4.98039198
1070.15234375	4.98039198
1070.15649414	4.98039198
1070.16040039	4.98039198
1070.16467285	4.98039198
1070.16894531	4.98039198
1070.16894531	4.98039198
1070.17297363	4.98039198
1070.17712402	4.98039198
1070.18103027	4.98039198
1070.18103027	4.98039198
1070.18505859	4.98039198
1070.18920898	4.98039198
1070.19335938	4.98039198
1070.19763184	4.98039198
1070.19763184	4.98039198
1070.20153809	4.98039198
1070.20556641	4.98039198
1070.20971680	4.98039198
1070.20971680	4.98039198
1070.21386719	4.98039198
1070.21789551	4.98039198
1070.22192383	4.98039198
1070.22607422	4.98039198
1070.23034668	4.98039198
1070.23449707	4.98039198
1070.23840332	4.98039198
1070.23840332	4.98039198
1070.24255371	4.98039198
1070.24682617	4.98039198
1070.25073242	4.98039198
1070.25476074	4.98039198
1070.25878906	4.98039198
1070.26306152	4.98039198
1070.26721191	4.98039198
1070.26721191	4.98039198
1070.27111816	4.98039198
1070.27526855	4.98039198
1070.27954102	4.98039198
1070.28344727	4.98039198
1070.28759766	4.98039198
1070.29174805	4.98039198
1070.29589844	4.98039198
1070.29589844	4.98039198
1070.29992676	4.98039198
1070.30407715	4.98039198
1070.30798340	4.98039198
1070.31237793	4.98039198
1070.31628418	4.98039198
1070.32043457	4.98039198
1070.32434082	4.98039198
1070.32434082	4.84313726
1070.32849121	4.98039198
1070.33264160	4.98039198
1070.33679199	4.98039198
1070.34069824	4.96078444
1070.34484863	4.98039198
1070.34899902	4.98039198
1070.35339355	4.98039198
1070.35339355	4.98039198
1070.35742188	4.98039198
1070.36145020	4.98039198
1070.36560059	4.98039198
1070.36560059	4.98039198
1070.36950684	4.98039198
1070.37365723	4.98039198
1070.37768555	4.98039198
1070.38171387	4.98039198
1070.38171387	4.96078444
1070.38586426	3.94117641
1070.38989258	2.98039222
1070.39404297	1.98039210
1070.39404297	1.92156863
1070.39819336	1.94117641
1070.40222168	2.09803915
1070.40625000	1.62745094
1070.41052246	1.43137252
1070.41052246	1.27450979
1070.41455078	1.15686274
1070.41857910	0.82352942
1070.42272949	0.01960784
1070.42272949	0.01960784
1070.42712402	0.05882353
1070.43090820	0.01960784
1070.43493652	0.01960784
1070.43908691	0.01960784
1070.43908691	0.01960784
1070.44323730	0.01960784
1070.44738770	0.01960784
1070.45141602	0.01960784
1070.45141602	0.01960784
1070.45544434	0.01960784
1070.45959473	0.01960784
1070.46386719	0.01960784
1070.46777344	0.01960784
1070.46777344	0.01960784
1070.47192383	0.01960784
1070.47607422	0.01960784
1070.48010254	0.01960784
1070.48010254	0.01960784
1070.48413086	0.01960784
1070.48840332	0.01960784
1070.49230957	0.01960784
1070.49658203	0.01960784
1070.49658203	0.01960784
1070.50048828	0.01960784
1070.50463867	0.01960784
1070.50866699	0.01960784
1070.50866699	0.01960784
1070.51293945	0.01960784
1070.51684570	0.01960784
1070.52099609	0.01960784
1070.52514648	0.01960784
1070.52514648	0.01960784
1070.52941895	0.01960784
1070.53344727	0.01960784
1070.53747559	0.01960784
1070.53747559	0.01960784
1070.54150391	0.01960784
1070.54577637	0.01960784
1070.54980469	0.01960784
1070.55407715	0.01960784
1070.55407715	0.01960784
1070.55786133	0.01960784
1070.56213379	0.01960784
1070.56604004	0.01960784
1070.56604004	0.01960784
1070.57019043	0.01960784
1070.57421875	0.01960784
1070.57836914	0.01960784
1070.58251953	0.01960784
1070.58666992	0.01960784
1070.59069824	0.01960784
1070.59472656	0.01960784
1070.59472656	0.01960784
1070.59887695	0.01960784
1070.60302734	0.01960784
1070.60705566	0.01960784
1070.61108398	0.01960784
1070.61535645	0.01960784
1070.61938477	0.01960784
1070.62353516	0.01960784
1070.62353516	0.01960784
1070.62744141	0.01960784
1070.63171387	0.01960784
1070.63586426	0.01960784
1070.63977051	0.01960784
1070.64379883	0.01960784
1070.64819336	0.01960784
1070.65209961	0.01960784
1070.65209961	0.01960784
1070.65625000	0.01960784
1070.66027832	0.01960784
1070.66442871	0.01960784
1070.66845703	0.01960784
1070.67260742	0.01960784
1070.67687988	0.01960784
1070.68090820	0.01960784
1070.68090820	0.01960784
1070.68493652	0.01960784
1070.68896484	0.01960784
1070.69311523	0.01960784
1070.69726563	0.01960784
1070.70129395	0.01960784
1070.70544434	0.01960784
1070.70947266	0.01960784
1070.70947266	0.21568628
1070.71350098	0.66666669
1070.71777344	1.45098042
1070.72180176	2.56862736
1070.72180176	3.19607854
1070.72583008	3.19607854
1070.73010254	2.66666675
1070.73400879	2.25490189
1070.73815918	1.70588231
1070.73815918	0.76470590
1070.74230957	0.01960784
1070.74658203	0.01960784
1070.75048828	0.01960784
1070.75048828	0.01960784
1070.75439453	0.01960784
1070.75866699	0.03921569
1070.76281738	0.01960784
1070.76696777	0.01960784
1070.76696777	0.01960784
1070.77087402	0.01960784
1070.77502441	0.01960784
1070.77954102	0.25490198
1070.77954102	0.54901963
1070.78320313	0.94117647
1070.78723145	1.01960790
1070.79138184	0.80392158
1070.79577637	0.45098040
1070.79577637	0.17647059
1070.79956055	0.47058824
1070.80395508	0.64705884
1070.80786133	0.76470590
1070.80786133	0.92156863
1070.81188965	1.50980389
1070.81604004	1.50980389
1070.82019043	1.90196073
1070.82409668	2.13725495
1070.82409668	2.29411769
1070.82824707	2.45098042
1070.83264160	2.86274505
1070.83642578	2.21568632
1070.83642578	1.92156863
1070.84045410	2.60784316
1070.84484863	2.23529410
1070.84887695	2.21568632
1070.85278320	2.33333325
1070.85278320	2.58823538
1070.85693359	3.19607854
1070.86096191	3.54901958
1070.86511230	4.05882359
1070.86511230	4.15686274
1070.86926270	3.98039222
1070.87341309	3.80392146
1070.87731934	3.47058821
1070.88159180	3.33333325
1070.88159180	3.52941179
1070.88562012	3.94117641
1070.88977051	4.33333349
1070.89379883	4.56862736
1070.89379883	4.49019623
1070.89782715	4.27450991
1070.90197754	4.11764717
1070.90612793	4.27450991
1070.91027832	4.98039198
1070.91027832	4.98039198
1070.91430664	4.84313726
1070.91845703	4.70588255
1070.92248535	4.98039198
1070.92248535	4.98039198
1070.92663574	4.98039198
1070.93078613	4.92156839
1070.93469238	4.98039198
1070.93884277	4.98039198
1070.93884277	4.98039198
1070.94299316	4.98039198
1070.94689941	4.98039198
1070.95117188	4.98039198
1070.95117188	4.98039198
1070.95532227	4.98039198
1070.95935059	4.98039198
1070.96362305	4.98039198
1070.96752930	4.98039198
1070.97180176	4.98039198
1070.97570801	4.98039198
1070.98010254	4.98039198
1070.98010254	4.98039198
1070.98388672	4.98039198
1070.98791504	4.98039198
1070.99206543	4.98039198
1070.99621582	4.98039198
1071.00048828	4.98039198
1071.00439453	4.98039198
1071.00842285	4.98039198
1071.00842285	4.98039198
1071.01269531	4.98039198
1071.01672363	4.98039198
1071.02075195	4.98039198
1071.02478027	4.98039198
1071.02929688	4.98039198
1071.03308105	4.98039198
1071.03723145	4.98039198
1071.03723145	4.98039198
1071.04125977	4.98039198
1071.04553223	4.84313726
1071.04943848	4.47058821
1071.05346680	4.13725471
1071.05773926	3.96078420
1071.06176758	3.66666675
1071.06591797	3.90196085
1071.06591797	4.78431368
1071.06994629	4.98039198
1071.07409668	4.98039198
1071.07812500	4.98039198
1071.08227539	4.98039198
1071.08642578	4.98039198
1071.09033203	4.98039198
1071.09448242	4.84313726
1071.09448242	4.31372547
1071.09863281	3.94117641
1071.10278320	3.54901958
1071.10705566	3.17647052
1071.10705566	3.31372547
1071.11083984	3.78431368
1071.11511230	3.39215684
1071.11914063	3.01960778
1071.12329102	2.70588231
1071.12329102	2.60784316
1071.12719727	2.72549009
1071.13159180	2.41176462
1071.13549805	2.54901958
1071.13549805	2.64705873
1071.13952637	2.43137264
1071.14367676	2.29411769
1071.14770508	2.62745094
1071.15185547	3.35294127
1071.15185547	3.33333325
1071.15600586	3.33333325
1071.16003418	3.11764717
1071.16406250	3.07843137
1071.16406250	3.11764717
1071.16845703	3.54901958
1071.17236328	3.70588231
1071.17651367	3.72549009
1071.18066406	3.64705873
1071.18066406	3.50980401
1071.18469238	3.70588231
1071.18872070	4.15686274
1071.19274902	4.31372547
1071.19274902	4.27450991
1071.19702148	3.98039222
1071.20117188	4.19607830
1071.20520020	4.23529434
1071.20922852	4.27450991
1071.20922852	4.15686274
1071.21337891	4.27450991
1071.21728516	4.13725471
1071.22143555	4.31372547
1071.22143555	4.74509811
1071.22558594	4.98039198
1071.23010254	4.98039198
1071.23400879	4.88235283
1071.23791504	4.94117641
1071.23791504	4.98039198
1071.24194336	4.98039198
1071.24609375	4.98039198
1071.25024414	4.98039198
1071.25024414	4.98039198
1071.25427246	4.98039198
1071.25830078	4.98039198
1071.26269531	4.72549009
1071.26660156	4.29411745
1071.26660156	3.66666675
1071.27075195	3.27450991
1071.27478027	3.21568632
1071.27917480	3.31372547
1071.27917480	3.35294127
1071.28308105	3.19607854
1071.28698730	3.11764717
1071.29113770	3.01960778
1071.29553223	3.19607854
1071.29553223	3.21568632
1071.29943848	3.27450991
1071.30358887	3.17647052
1071.30749512	3.01960778
1071.30749512	3.01960778
1071.31164551	2.68627453
1071.31579590	2.82352948
1071.31982422	2.70588231
1071.32385254	2.56862736
1071.32385254	2.50980401
1071.32836914	2.21568632
1071.33239746	1.49019611
1071.33630371	0.98039216
1071.33630371	1.31372547
1071.34033203	1.15686274
1071.34436035	1.33333337
1071.34863281	0.90196079
1071.35266113	0.43137255
1071.35681152	0.41176471
1071.36096191	0.21568628
1071.36511230	0.41176471
1071.36511230	0.52941179
1071.36914063	0.43137255
1071.37329102	0.68627453
1071.37744141	1.37254906
1071.38146973	1.96078432
1071.38549805	2.39215684
1071.38964844	2.50980401
1071.39379883	2.47058821
1071.39379883	2.03921580
1071.39794922	1.96078432
1071.40295410	1.78431368
1071.40612793	1.31372547
1071.41027832	0.90196079
1071.41418457	1.39215684
1071.41809082	2.45098042
1071.42224121	3.56862736
1071.42224121	4.50980377
1071.42639160	4.98039198
1071.43029785	4.98039198
1071.43444824	4.98039198
1071.43859863	4.98039198
1071.44274902	4.94117641
1071.44689941	4.70588255
1071.45080566	3.88235283
1071.45080566	2.98039222
1071.45495605	1.96078432
1071.45910645	1.25490201
1071.46337891	1.00000000
1071.46728516	0.78431374
1071.47155762	0.43137255
1071.47570801	0.49019608
1071.47998047	0.74509805
1071.47998047	0.86274511
1071.48376465	1.41176474
1071.48779297	1.11764705
1071.49182129	1.39215684
1071.49182129	1.52941179
1071.49609375	2.01960778
1071.50012207	2.47058821
1071.50402832	3.00000000
1071.50830078	3.09803915
1071.50830078	3.33333325
1071.51269531	3.74509811
1071.51647949	3.56862736
1071.52038574	3.50980401
1071.52038574	3.68627453
1071.52478027	3.80392146
1071.52880859	4.21568632
1071.53295898	4.39215708
1071.53698730	4.72549009
1071.53698730	4.98039198
1071.54125977	4.86274529
1071.54516602	4.88235283
1071.54919434	4.84313726
1071.54919434	4.23529434
1071.55334473	3.98039222
1071.55737305	3.60784316
1071.56152344	3.33333325
1071.56567383	3.31372547
1071.56567383	3.17647052
1071.56970215	2.88235283
1071.57373047	2.94117641
1071.57788086	3.21568632
1071.57788086	3.50980401
1071.58203125	3.56862736
1071.58605957	3.19607854
1071.59020996	2.70588231
1071.59423828	2.45098042
1071.59423828	2.76470590
1071.59838867	3.01960778
1071.60266113	2.90196085
1071.60668945	3.23529410
1071.60668945	3.17647052
1071.61071777	3.03921580
1071.61474609	2.96078420
1071.61889648	3.00000000
1071.62304688	2.80392146
1071.62304688	2.84313726
1071.62707520	2.66666675
1071.63110352	2.70588231
1071.63525391	2.84313726
1071.63525391	2.66666675
1071.63940430	2.52941179
1071.64343262	2.35294127
1071.64746094	2.33333325
1071.65173340	2.78431368
1071.65173340	3.35294127
1071.65563965	3.78431368
1071.65991211	4.27450991
1071.66406250	4.64705896
1071.66406250	4.94117641
1071.66809082	4.43137264
1071.67211914	4.58823538
1071.67614746	4.98039198
1071.68054199	4.98039198
1071.68054199	4.96078444
1071.68432617	4.90196085
1071.68847656	4.60784292
1071.69262695	4.74509811
1071.69262695	4.47058821
1071.69689941	4.11764717
1071.70068359	4.05882359
1071.70483398	4.33333349
1071.70898438	4.21568632
1071.70898438	3.62745094
1071.71337891	3.49019599
1071.71716309	3.29411769
1071.72119141	3.47058821
1071.72119141	3.54901958
1071.72534180	3.50980401
1071.72961426	3.33333325
1071.73352051	3.15686274
1071.73767090	2.27450991
1071.74169922	1.98039210
1071.74597168	2.07843137
1071.75000000	2.33333325
1071.75000000	2.07843137
1071.75390625	1.74509799
1071.75817871	1.19607842
1071.76245117	0.52941179
1071.76635742	0.01960784
1071.77038574	0.07843138
1071.77441406	0.70588237
1071.77856445	1.60784316
1071.77856445	3.15686274
1071.78283691	4.90196085
1071.78674316	4.98039198
1071.79101563	4.98039198
1071.79504395	4.21568632
1071.79919434	3.21568632
1071.80322266	2.13725495
1071.80737305	1.19607842
1071.80737305	0.01960784
1071.81140137	0.01960784
1071.81542969	0.01960784
1071.81958008	0.01960784
1071.82373047	0.01960784
1071.82775879	0.01960784
1071.83215332	0.01960784
1071.83605957	0.01960784
1071.83605957	0.01960784
1071.83996582	0.01960784
1071.84436035	0.01960784
1071.84851074	0.01960784
1071.85266113	0.01960784
1071.85668945	0.01960784
1071.86059570	0.01960784
1071.86486816	0.01960784
1071.86486816	0.01960784
1071.86865234	0.01960784
1071.87292480	0.01960784
1071.87695313	0.01960784
1071.87695313	0.01960784
1071.88098145	0.01960784
1071.88513184	0.01960784
1071.88928223	0.01960784
1071.89331055	0.09803922
1071.89331055	0.01960784
1071.89733887	0.39215687
1071.90148926	0.19607843
1071.90563965	0.01960784
1071.90563965	0.49019608
1071.90979004	0.72549021
1071.91394043	0.60784316
1071.91809082	0.39215687
1071.92199707	0.41176471
1071.92199707	0.49019608
1071.92614746	0.96078432
1071.93029785	0.90196079
1071.93420410	1.19607842
1071.93420410	1.27450979
1071.93835449	1.17647064
1071.94250488	1.52941179
1071.94665527	1.56862748
1071.95068359	1.49019611
1071.95068359	1.33333337
1071.95483398	1.72549021
1071.95886230	1.58823526
1071.96313477	1.45098042
1071.96313477	1.68627453
1071.96704102	1.05882359
1071.97106934	0.62745100
1071.97521973	0.13725491
1071.97961426	0.17647059
1071.97961426	0.17647059
1071.98352051	0.01960784
1071.98754883	0.01960784
1071.99169922	0.01960784
1071.99169922	0.01960784
1071.99572754	0.01960784
1071.99987793	0.01960784
1072.00390625	0.01960784
1072.00793457	0.01960784
1072.00793457	0.01960784
1072.01220703	0.01960784
1072.01623535	0.01960784
1072.02026367	0.01960784
1072.02026367	0.01960784
1072.02441406	0.01960784
1072.02844238	0.01960784
1072.03259277	0.01960784
1072.03674316	0.01960784
1072.03674316	0.01960784
1072.04064941	0.01960784
1072.04516602	0.01960784
1072.04907227	0.01960784
1072.04907227	0.01960784
1072.05310059	0.01960784
1072.05712891	0.01960784
1072.06115723	0.01960784
1072.06530762	0.01960784
1072.06530762	0.01960784
1072.06945801	0.01960784
1072.07348633	0.01960784
1072.07788086	0.01960784
1072.07788086	0.01960784
1072.08178711	0.01960784
1072.08581543	0.01960784
1072.08996582	0.01960784
1072.09399414	0.01960784
1072.09814453	0.01960784
1072.10229492	0.01960784
1072.10644531	0.01960784
1072.10644531	0.01960784
1072.11035156	0.01960784
1072.11462402	0.01960784
1072.11853027	0.01960784
1072.12268066	0.01960784
1072.12670898	0.01960784
1072.13098145	0.35294119
1072.13500977	0.94117647
1072.13500977	1.94117641
1072.13916016	3.50980401
1072.14318848	4.62745094
1072.14733887	4.92156839
1072.15136719	3.96078420
1072.15551758	2.84313726
1072.15954590	2.47058821
1072.16369629	1.86274505
1072.16369629	1.01960790
1072.16784668	0.66666669
1072.17187500	0.98039216
1072.17602539	1.05882359
1072.18017578	0.80392158
1072.18408203	0.94117647
1072.18823242	1.35294116
1072.19238281	1.54901958
1072.19238281	1.39215684
1072.19653320	1.58823526
1072.20043945	1.88235295
1072.20471191	1.86274505
1072.20874023	1.74509799
1072.21313477	1.45098042
1072.21679688	1.11764705
1072.22094727	0.56862748
1072.22094727	0.52941179
1072.22509766	1.03921568
1072.22937012	1.76470590
1072.23339844	1.62745094
1072.23339844	1.35294116
1072.23742676	1.43137252
1072.24145508	1.07843137
1072.24560547	0.96078432
1072.24975586	0.47058824
1072.24975586	0.01960784
1072.25378418	0.01960784
1072.25781250	0.13725491
1072.26196289	0.05882353
1072.26196289	0.35294119
1072.26623535	0.39215687
1072.27001953	0.68627453
1072.27416992	0.68627453
1072.27832031	0.21568628
1072.27832031	0.01960784
1072.28259277	0.07843138
1072.28662109	0.01960784
1072.29064941	0.01960784
1072.29064941	0.01960784
1072.29492188	0.01960784
1072.29895020	0.01960784
1072.30297852	0.01960784
1072.30712891	0.01960784
1072.30712891	0.01960784
1072.31115723	0.01960784
1072.31530762	0.01960784
1072.31933594	0.01960784
1072.31933594	0.01960784
1072.32336426	0.01960784
1072.32751465	0.01960784
1072.33166504	0.01960784
1072.33569336	0.01960784
1072.33569336	0.01960784
1072.33984375	0.01960784
1072.34399414	0.01960784
1072.34802246	0.01960784
1072.34802246	0.01960784
1072.35229492	0.01960784
1072.35644531	0.01960784
1072.36047363	0.01960784
1072.36450195	0.01960784
1072.36450195	0.01960784
1072.36853027	0.01960784
1072.37268066	0.01960784
1072.37670898	0.01960784
1072.37670898	0.01960784
1072.38073730	0.01960784
1072.38488770	0.01960784
1072.38891602	0.01960784
1072.39318848	0.01960784
1072.39318848	0.01960784
1072.39721680	0.01960784
1072.40124512	0.01960784
1072.40539551	0.01960784
1072.40539551	0.01960784
1072.40942383	0.01960784
1072.41357422	0.01960784
1072.41784668	0.01960784
1072.42175293	0.01960784
1072.42175293	0.01960784
1072.42602539	0.01960784
1072.42993164	0.01960784
1072.43395996	0.01960784
1072.43395996	0.01960784
1072.43811035	0.01960784
1072.44226074	0.01960784
1072.44641113	0.01960784
1072.45031738	0.01960784
1072.45446777	0.01960784
1072.45861816	0.01960784
1072.46289063	0.01960784
1072.46289063	0.01960784
1072.46667480	0.01960784
1072.47082520	0.01960784
1072.47497559	0.01960784
1072.47924805	0.01960784
1072.48327637	0.01960784
1072.48718262	0.01960784
1072.49133301	0.01960784
1072.49133301	0.01960784
1072.49560547	0.13725491
1072.49963379	0.13725491
1072.50366211	0.01960784
1072.50769043	0.01960784
1072.51184082	0.01960784
1072.51599121	0.01960784
1072.52014160	0.01960784
1072.52014160	0.01960784
1072.52416992	0.01960784
1072.52832031	0.01960784
1072.53234863	0.01960784
1072.53649902	0.01960784
1072.54052734	0.01960784
1072.54455566	0.01960784
1072.54882813	0.01960784
1072.54882813	0.01960784
1072.55310059	0.01960784
1072.55688477	0.01960784
1072.56103516	0.01960784
1072.56103516	0.01960784
1072.56530762	0.01960784
1072.56933594	0.01960784
1072.57324219	0.01960784
1072.57739258	0.01960784
1072.57739258	0.01960784
1072.58142090	0.01960784
1072.58557129	0.01960784
1072.58972168	0.01960784
1072.58972168	0.01960784
1072.59387207	0.01960784
1072.59790039	0.01960784
1072.60192871	0.01960784
1072.60607910	0.01960784
1072.60607910	0.01960784
1072.61035156	0.01960784
1072.61437988	0.01960784
1072.61840820	0.01960784
1072.61840820	0.01960784
1072.62243652	0.01960784
1072.62646484	0.01960784
1072.63073730	0.01960784
1072.63476563	0.01960784
1072.63476563	0.01960784
1072.63879395	0.01960784
1072.64294434	0.01960784
1072.64697266	0.01960784
1072.64697266	0.01960784
1072.65112305	0.01960784
1072.65527344	0.21568628
1072.65930176	0.27450982
1072.66357422	0.82352942
1072.66357422	1.54901958
1072.66748047	2.41176462
1072.67163086	3.33333325
1072.67590332	4.15686274
1072.67590332	4.98039198
1072.68005371	4.98039198
1072.68395996	4.98039198
1072.68798828	4.98039198
1072.69213867	4.98039198
1072.69213867	4.98039198
1072.69628906	4.98039198
1072.70019531	4.98039198
1072.70434570	4.98039198
1072.70434570	4.96078444
1072.70849609	4.92156839
1072.71276855	4.72549009
1072.71667480	4.33333349
1072.72070313	3.92156863
1072.72070313	3.82352948
1072.72485352	3.29411769
1072.72912598	2.68627453
1072.73315430	1.68627453
1072.73315430	0.54901963
1072.73730469	0.11764706
1072.74133301	0.01960784
1072.74572754	0.01960784
1072.74963379	0.01960784
1072.74963379	0.01960784
1072.75354004	0.01960784
1072.75769043	0.01960784
1072.76171875	0.01960784
1072.76171875	0.01960784
1072.76586914	0.01960784
1072.76977539	0.01960784
1072.77404785	0.01960784
1072.77807617	0.01960784
1072.77807617	0.01960784
1072.78222656	0.05882353
1072.78637695	0.01960784
1072.79028320	0.01960784
1072.79028320	0.01960784
1072.79455566	0.01960784
1072.79870605	0.01960784
1072.80297852	0.01960784
1072.80676270	0.01960784
1072.81091309	0.01960784
1072.81506348	0.01960784
1072.81921387	0.01960784
1072.81921387	0.01960784
1072.82312012	0.01960784
1072.82714844	0.07843138
1072.83129883	0.05882353
1072.83557129	1.50980389
1072.83959961	2.74509811
1072.84362793	4.37254906
1072.84777832	4.98039198
1072.84777832	4.98039198
1072.85192871	4.98039198
1072.85595703	4.98039198
1072.86010742	4.98039198
1072.86425781	4.98039198
1072.86840820	4.98039198
1072.87243652	4.70588255
1072.87646484	4.62745094
1072.87646484	4.60784292
1072.88061523	4.50980377
1072.88452148	4.54901981
1072.88879395	4.52941179
1072.89294434	4.96078444
1072.89685059	4.62745094
1072.90100098	4.50980377
1072.90515137	4.68627453
1072.90515137	4.31372547
1072.90930176	3.88235283
1072.91381836	3.54901958
1072.91735840	3.78431368
1072.92150879	3.98039222
1072.92565918	3.11764717
1072.93005371	2.25490189
1072.93395996	1.84313726
1072.93395996	1.09803927
1072.93786621	0.09803922
1072.94201660	0.01960784
1072.94616699	0.01960784
1072.94616699	0.01960784
1072.95007324	0.01960784
1072.95422363	0.01960784
1072.95837402	0.01960784
1072.96264648	0.01960784
1072.96264648	0.01960784
1072.96655273	0.01960784
1072.97082520	0.01960784
1072.97473145	0.01960784
1072.97473145	0.01960784
1072.97912598	0.01960784
1072.98303223	0.01960784
1072.98693848	0.01960784
1072.99121094	0.01960784
1072.99121094	0.01960784
1072.99536133	0.01960784
1072.99938965	0.01960784
1073.00341797	0.01960784
1073.00341797	0.01960784
1073.00744629	0.01960784
1073.01159668	0.01960784
1073.01574707	0.01960784
1073.01977539	0.01960784
1073.01977539	0.01960784
1073.02380371	0.01960784
1073.02795410	0.01960784
1073.03210449	0.01960784
1073.03210449	0.01960784
1073.03613281	0.01960784
1073.04016113	0.01960784
1073.04443359	0.01960784
1073.04846191	0.01960784
1073.04846191	0.01960784
1073.05261230	0.01960784
1073.05688477	0.01960784
1073.06079102	0.01960784
1073.06079102	0.01960784
1073.06494141	0.01960784
1073.06896973	0.01960784
1073.07312012	0.01960784
1073.07714844	0.01960784
1073.07714844	0.01960784
1073.08142090	0.01960784
1073.08532715	0.01960784
1073.08947754	0.01960784
1073.08947754	0.01960784
1073.09350586	0.01960784
1073.09765625	0.01960784
1073.10168457	0.01960784
1073.10583496	0.01960784
1073.10583496	0.01960784
1073.10986328	0.01960784
1073.11401367	0.01960784
1073.11804199	0.01960784
1073.11804199	0.01960784
1073.12231445	0.01960784
1073.12622070	0.01960784
1073.13049316	0.01960784
1073.13439941	0.01960784
1073.13439941	0.01960784
1073.13867188	0.01960784
1073.14270020	0.01960784
1073.14672852	0.01960784
1073.14672852	0.01960784
1073.15087891	0.01960784
1073.15502930	0.01960784
1073.15905762	0.01960784
1073.16345215	0.01960784
1073.16723633	0.01960784
1073.17138672	0.01960784
1073.17541504	0.01960784
1073.17541504	0.01960784
1073.17968750	0.01960784
1073.18395996	0.03921569
1073.18774414	0.13725491
1073.19189453	0.84313726
1073.19604492	2.11764717
1073.19995117	3.09803915
1073.20410156	4.23529434
1073.20410156	4.98039198
1073.20812988	4.98039198
1073.21264648	4.98039198
1073.21655273	4.96078444
1073.22045898	3.90196085
1073.22460938	2.54901958
1073.22875977	1.50980389
1073.23278809	0.92156863
1073.23278809	0.80392158
1073.23681641	0.72549021
1073.24121094	0.45098040
1073.24536133	0.05882353
1073.24926758	0.01960784
1073.25329590	0.15686275
1073.25744629	0.43137255
1073.26147461	0.82352942
1073.26147461	0.94117647
1073.26574707	0.86274511
1073.26977539	0.80392158
1073.27380371	0.72549021
1073.27795410	0.01960784
1073.28198242	0.01960784
1073.28601074	0.01960784
1073.29016113	0.01960784
1073.29016113	0.33333334
1073.29431152	0.35294119
1073.29846191	0.74509805
1073.30249023	0.47058824
1073.30249023	0.50980395
1073.30651855	0.88235295
1073.31079102	1.56862748
1073.31469727	2.35294127
1073.31884766	2.66666675
1073.31884766	2.76470590
1073.32287598	3.07843137
1073.32751465	3.23529410
1073.33117676	3.78431368
1073.33117676	4.09803915
1073.33520508	4.41176462
1073.33935547	4.98039198
1073.34338379	4.98039198
1073.34741211	4.78431368
1073.34741211	4.96078444
1073.35156250	4.98039198
1073.35571289	4.98039198
1073.35986328	4.98039198
1073.35986328	4.47058821
1073.36389160	4.37254906
1073.36816406	4.23529434
1073.37231445	4.66666651
1073.37646484	4.86274529
1073.37646484	4.66666651
1073.38024902	4.56862736
1073.38439941	4.49019623
1073.38842773	4.31372547
1073.38842773	4.15686274
1073.39257813	4.15686274
1073.39672852	4.23529434
1073.40075684	4.31372547
1073.40478516	4.45098019
1073.40478516	4.27450991
1073.40905762	4.11764717
1073.41333008	4.15686274
1073.41711426	3.88235283
1073.41711426	4.05882359
1073.42126465	4.49019623
1073.42541504	4.64705896
1073.42968750	4.66666651
1073.43347168	4.98039198
1073.43347168	4.84313726
1073.43762207	4.98039198
1073.44177246	4.98039198
1073.44604492	4.98039198
1073.44604492	4.98039198
1073.44995117	4.98039198
1073.45397949	4.98039198
1073.45812988	4.98039198
1073.46252441	4.98039198
1073.46252441	4.98039198
1073.46618652	4.98039198
1073.47033691	4.98039198
1073.47448730	4.98039198
1073.47448730	4.98039198
1073.47851563	4.98039198
1073.48266602	4.98039198
1073.48669434	4.98039198
1073.49084473	4.98039198
1073.49084473	4.98039198
1073.49487305	4.98039198
1073.49914551	4.98039198
1073.50354004	4.98039198
1073.50354004	4.98039198
1073.50732422	4.98039198
1073.51135254	4.98039198
1073.51562500	4.98039198
1073.51977539	4.98039198
1073.51977539	4.98039198
1073.52380371	4.98039198
1073.52770996	4.98039198
1073.53186035	4.98039198
1073.53186035	4.98039198
1073.53601074	4.98039198
1073.53991699	4.98039198
1073.54443359	4.98039198
1073.54821777	4.98039198
1073.55236816	4.98039198
1073.55639648	4.98039198
1073.56042480	4.98039198
1073.56042480	4.98039198
1073.56481934	4.98039198
1073.56884766	4.98039198
1073.57287598	4.98039198
1073.57678223	4.98039198
1073.58117676	4.98039198
1073.58508301	4.98039198
1073.58923340	4.98039198
1073.58923340	4.98039198
1073.59313965	4.98039198
1073.59741211	4.98039198
1073.60156250	4.98039198
1073.60559082	4.98039198
1073.60974121	4.98039198
1073.61376953	4.92156839
1073.61779785	4.96078444
1073.61779785	4.98039198
1073.62207031	4.94117641
1073.62622070	4.98039198
1073.63024902	4.98039198
1073.63427734	4.52941179
1073.63830566	4.17647076
1073.64245605	3.92156863
1073.64672852	3.82352948
1073.64672852	4.01960802
1073.65075684	4.00000000
1073.65478516	3.94117641
1073.65881348	3.92156863
1073.66308594	3.58823538
1073.66699219	3.33333325
1073.67114258	3.35294127
1073.67517090	3.23529410
1073.67517090	3.07843137
1073.67956543	2.74509811
1073.68347168	2.64705873
1073.68737793	2.60784316
1073.68737793	2.33333325
1073.69165039	2.01960778
1073.69592285	1.76470590
1073.69970703	1.56862748
1073.70385742	1.45098042
1073.70385742	1.43137252
1073.70788574	1.52941179
1073.71228027	1.47058821
1073.71630859	1.78431368
1073.71630859	1.64705884
1073.72021484	0.88235295
1073.72436523	0.86274511
1073.72851563	1.07843137
1073.73254395	1.05882359
1073.73254395	0.70588237
1073.73681641	0.52941179
1073.74072266	0.39215687
1073.74487305	0.25490198
1073.74487305	0.01960784
1073.74902344	0.01960784
1073.75317383	0.01960784
1073.75720215	0.01960784
1073.76123047	0.01960784
1073.76123047	0.01960784
1073.76538086	0.01960784
1073.76977539	0.01960784
1073.77343750	0.01960784
1073.77343750	0.01960784
1073.77758789	0.01960784
1073.78173828	0.01960784
1073.78588867	0.01960784
1073.78979492	0.01960784
1073.78979492	0.19607843
1073.79394531	0.19607843
1073.79809570	0.01960784
1073.80224609	0.01960784
1073.80224609	0.01960784
1073.80627441	0.45098040
1073.81054688	0.92156863
1073.81469727	1.15686274
1073.81872559	1.29411769
1073.81872559	1.43137252
1073.82275391	1.70588231
1073.82678223	2.33333325
1073.83093262	3.31372547
1073.83093262	4.11764717
1073.83508301	4.27450991
1073.83911133	4.66666651
1073.84338379	4.98039198
1073.84729004	4.98039198
1073.84729004	4.98039198
1073.85144043	4.98039198
1073.85559082	4.98039198
1073.85961914	4.98039198
1073.85961914	4.98039198
1073.86401367	4.98039198
1073.86779785	4.98039198
1073.87194824	4.98039198
1073.87609863	4.98039198
1073.87609863	4.98039198
1073.88024902	4.98039198
1073.88415527	4.98039198
1073.88830566	4.86274529
1073.88830566	4.11764717
1073.89245605	3.72549009
1073.89648438	3.64705873
1073.90051270	3.92156863
1073.90478516	4.29411745
1073.90478516	4.86274529
1073.90881348	4.98039198
1073.91271973	4.98039198
1073.91687012	4.98039198
1073.91687012	4.98039198
1073.92102051	4.98039198
1073.92517090	4.98039198
1073.92932129	4.98039198
1073.93322754	4.84313726
1073.93737793	4.13725471
1073.94140625	3.50980401
1073.94580078	3.43137264
1073.94580078	3.21568632
1073.94995117	2.96078420
1073.95385742	3.19607854
1073.95788574	3.58823538
1073.96203613	3.80392146
1073.96618652	3.62745094
1073.97009277	3.56862736
1073.97424316	3.43137264
1073.97424316	3.49019599
1073.97839355	3.37254906
1073.98266602	3.39215684
1073.98645020	3.45098042
1073.99072266	3.39215684
1073.99475098	3.41176462
1073.99902344	3.60784316
1074.00292969	3.49019599
1074.00292969	3.49019599
1074.00695801	3.68627453
1074.01135254	3.80392146
1074.01525879	3.74509811
1074.01940918	3.84313726
1074.02331543	4.03921556
1074.02746582	4.09803915
1074.03173828	4.09803915
1074.03173828	4.23529434
1074.03576660	4.27450991
1074.03967285	4.37254906
1074.04382324	4.43137264
1074.04797363	4.54901981
1074.05212402	4.66666651
1074.05615234	4.74509811
1074.06030273	4.82352924
1074.06030273	4.78431368
1074.06433105	4.82352924
1074.06848145	4.96078444
1074.07287598	4.98039198
1074.07287598	4.98039198
1074.07678223	4.98039198
1074.08081055	4.98039198
1074.08483887	4.98039198
1074.08898926	4.98039198
1074.08898926	4.98039198
1074.09301758	4.98039198
1074.09729004	4.98039198
1074.10119629	4.98039198
1074.10119629	4.98039198
1074.10534668	4.90196085
1074.10937500	4.88235283
1074.11352539	4.88235283
1074.11767578	4.98039198
1074.11767578	4.98039198
1074.12170410	4.98039198
1074.12585449	4.92156839
1074.12988281	4.90196085
1074.12988281	4.94117641
1074.13403320	4.98039198
1074.13830566	4.98039198
1074.14233398	4.86274529
1074.14648438	4.76470566
1074.14648438	4.66666651
1074.15026855	4.86274529
1074.15454102	4.84313726
1074.15856934	4.88235283
1074.15856934	4.96078444
1074.16284180	4.88235283
1074.16674805	4.96078444
1074.17102051	4.98039198
1074.17492676	4.96078444
1074.17492676	4.96078444
1074.17932129	4.98039198
1074.18310547	4.98039198
1074.18725586	4.96078444
1074.18725586	4.98039198
1074.19140625	4.98039198
1074.19592285	4.98039198
1074.19970703	4.96078444
1074.20385742	4.98039198
1074.20385742	4.98039198
1074.20776367	4.98039198
1074.21179199	4.98039198
1074.21594238	4.98039198
1074.21594238	4.98039198
1074.22009277	4.98039198
1074.22412109	4.98039198
1074.22839355	4.98039198
1074.23242188	4.98039198
1074.23242188	4.98039198
1074.23632813	4.98039198
1074.24072266	4.92156839
1074.24462891	4.74509811
1074.24462891	4.70588255
1074.24890137	4.78431368
1074.25268555	4.98039198
1074.25683594	4.98039198
1074.26123047	4.98039198
1074.26123047	4.98039198
1074.26513672	4.98039198
1074.26916504	4.98039198
1074.27319336	4.98039198
1074.27319336	4.98039198
1074.27734375	4.98039198
1074.28173828	4.98039198
1074.28564453	4.98039198
1074.28967285	4.98039198
1074.28967285	4.98039198
1074.29370117	4.98039198
1074.29785156	4.98039198
1074.30200195	4.98039198
1074.30200195	4.98039198
1074.30603027	4.98039198
1074.31005859	4.98039198
1074.31420898	4.98039198
1074.31835938	4.98039198
1074.31835938	4.94117641
1074.32263184	4.98039198
1074.32666016	4.98039198
1074.33068848	4.98039198
1074.33068848	4.98039198
1074.33471680	4.98039198
1074.33886719	4.98039198
1074.34289551	4.98039198
1074.34716797	4.98039198
1074.35107422	4.98039198
1074.35522461	4.98039198
1074.35937500	4.98039198
1074.35937500	4.98039198
1074.36340332	4.98039198
1074.36743164	4.98039198
1074.37158203	4.98039198
1074.37585449	4.98039198
1074.38000488	4.98039198
1074.38391113	4.98039198
1074.38806152	4.98039198
1074.38806152	4.98039198
1074.39233398	4.98039198
1074.39648438	4.98039198
1074.40026855	4.98039198
1074.40441895	4.98039198
1074.40844727	4.98039198
1074.41271973	4.98039198
1074.41674805	4.98039198
1074.41674805	4.98039198
1074.42065430	4.98039198
1074.42480469	4.98039198
1074.42919922	4.98039198
1074.43298340	4.98039198
1074.43713379	4.98039198
1074.44128418	4.92156839
1074.44543457	4.98039198
1074.44543457	4.98039198
1074.44946289	4.98039198
1074.45373535	4.98039198
1074.45800781	4.98039198
1074.46179199	4.98039198
1074.46594238	4.98039198
1074.46984863	4.98039198
1074.47399902	4.98039198
1074.47399902	4.98039198
1074.47814941	4.98039198
1074.48217773	4.98039198
1074.48632813	4.98039198
1074.48632813	4.98039198
1074.49035645	4.94117641
1074.49450684	4.72549009
1074.49865723	4.82352924
1074.50268555	4.68627453
1074.50268555	4.47058821
1074.50671387	4.68627453
1074.51086426	4.68627453
1074.51501465	4.92156839
1074.51501465	4.96078444
1074.51916504	4.96078444
1074.52307129	4.98039198
1074.52722168	4.56862736
1074.53161621	4.41176462
1074.53161621	4.31372547
1074.53540039	4.58823538
1074.53942871	4.98039198
1074.54370117	4.98039198
1074.54370117	4.33333349
1074.54772949	4.13725471
1074.55187988	4.01960802
1074.55603027	3.76470590
1074.55993652	3.72549009
1074.55993652	3.76470590
1074.56408691	3.70588231
1074.56823730	3.49019599
1074.57238770	3.29411769
1074.57238770	3.01960778
1074.57641602	2.74509811
1074.58068848	2.82352948
1074.58471680	2.62745094
1074.58874512	2.66666675
1074.58874512	2.31372547
1074.59265137	2.19607854
1074.59704590	2.43137264
1074.60095215	2.37254906
1074.60095215	1.90196073
1074.60510254	1.68627453
1074.60925293	1.66666663
1074.61328125	1.82352936
1074.61730957	2.37254906
1074.61730957	3.09803915
1074.62145996	3.88235283
1074.62561035	4.78431368
1074.63012695	4.98039198
1074.63012695	4.98039198
1074.63378906	4.98039198
1074.63793945	4.98039198
1074.64196777	4.76470566
1074.64672852	4.11764717
1074.64672852	3.64705873
1074.65014648	3.05882359
1074.65417480	1.98039210
1074.65832520	2.23529410
1074.65832520	2.25490189
1074.66247559	2.43137264
1074.66650391	2.13725495
1074.67053223	2.41176462
1074.67468262	2.50980401
1074.67468262	1.80392158
1074.67919922	1.07843137
1074.68286133	1.17647064
1074.68701172	1.82352936
1074.68701172	2.00000000
1074.69116211	1.68627453
1074.69519043	1.35294116
1074.69921875	1.41176474
1074.70349121	1.66666663
1074.70349121	1.50980389
1074.70776367	1.54901958
1074.71154785	1.54901958
1074.71582031	1.58823526
1074.71582031	2.25490189
1074.71972656	2.29411769
1074.72387695	2.50980401
1074.72802734	2.33333325
1074.73217773	2.52941179
1074.73608398	2.70588231
1074.74023438	2.49019599
1074.74438477	2.35294127
1074.74438477	2.09803915
1074.74841309	1.66666663
1074.75256348	2.31372547
1074.75671387	2.80392146
1074.76074219	3.00000000
1074.76489258	2.86274505
1074.76904297	2.43137264
1074.77307129	2.31372547
1074.77307129	2.66666675
1074.77709961	2.94117641
1074.78125000	2.90196085
1074.78527832	2.80392146
1074.78942871	2.66666675
1074.79345703	2.49019599
1074.79772949	2.58823538
1074.80187988	2.29411769
1074.80187988	2.39215684
1074.80603027	2.54901958
1074.80981445	1.74509799
1074.81408691	1.74509799
1074.81811523	1.86274505
1074.82214355	2.00000000
1074.82617188	1.76470590
1074.83056641	1.43137252
1074.83056641	1.66666663
1074.83459473	1.78431368
1074.83862305	1.94117641
1074.84265137	1.94117641
1074.84265137	1.50980389
1074.84692383	1.29411769
1074.85083008	0.98039216
1074.85498047	0.78431374
1074.85900879	0.60784316
1074.85900879	0.33333334
1074.86303711	0.23529412
1074.86718750	0.05882353
1074.87133789	0.01960784
1074.87133789	0.03921569
1074.87548828	0.01960784
1074.87976074	0.01960784
1074.88378906	0.01960784
1074.88793945	0.01960784
1074.88793945	0.01960784
1074.89208984	0.01960784
1074.89599609	0.01960784
1074.90014648	0.01960784
1074.90014648	0.01960784
1074.90417480	0.01960784
1074.90820313	0.01960784
1074.91235352	0.01960784
1074.91638184	0.01960784
1074.91638184	0.01960784
1074.92053223	0.01960784
1074.92456055	0.01960784
1074.92907715	0.01960784
1074.92907715	0.01960784
1074.93286133	0.01960784
1074.93688965	0.01960784
1074.94091797	0.01960784
1074.94506836	0.01960784
1074.94506836	0.01960784
1074.94909668	0.01960784
1074.95312500	0.01960784
1074.95739746	0.01960784
1074.95739746	0.01960784
1074.96166992	0.01960784
1074.96557617	0.01960784
1074.96972656	0.01960784
1074.97375488	0.01960784
1074.97375488	0.37254903
1074.97790527	1.49019611
1074.98205566	2.25490189
1074.98608398	3.33333325
1074.98608398	4.09803915
1074.99011230	4.27450991
1074.99426270	3.82352948
1074.99841309	2.92156863
1075.00244141	2.03921580
1075.00244141	0.70588237
1075.00646973	0.01960784
1075.01062012	0.01960784
1075.01477051	0.01960784
1075.01477051	0.01960784
1075.01892090	0.01960784
1075.02282715	0.01960784
1075.02709961	0.01960784
1075.03112793	0.01960784
1075.03112793	0.01960784
1075.03527832	0.01960784
1075.03918457	0.01960784
1075.04333496	0.01960784
1075.04333496	0.01960784
1075.04760742	0.01960784
1075.05163574	0.01960784
1075.05566406	0.01960784
1075.05981445	0.01960784
1075.05981445	0.01960784
1075.06384277	0.01960784
1075.06799316	0.01960784
1075.07214355	0.01960784
1075.07214355	0.01960784
1075.07617188	0.01960784
1075.08020020	0.01960784
1075.08447266	0.01960784
1075.08874512	0.01960784
1075.09252930	0.01960784
1075.09680176	0.01960784
1075.10070801	0.01960784
1075.10070801	0.01960784
1075.10498047	0.01960784
1075.10900879	0.01960784
1075.11303711	0.01960784
1075.11718750	0.01960784
1075.12133789	0.01960784
1075.12536621	0.01960784
1075.12963867	0.01960784
1075.12963867	0.01960784
1075.13342285	0.01960784
1075.13757324	0.01960784
1075.14172363	0.01960784
1075.14599609	0.01960784
1075.15014648	0.01960784
1075.15393066	0.01960784
1075.15808105	0.01960784
1075.15808105	0.01960784
1075.16223145	0.01960784
1075.16625977	0.01960784
1075.17041016	0.01960784
1075.17443848	0.01960784
1075.17858887	0.01960784
1075.18273926	0.01960784
1075.18664551	0.01960784
1075.18664551	0.01960784
1075.19091797	0.01960784
1075.19506836	0.01960784
1075.19921875	0.01960784
1075.19921875	0.01960784
1075.20324707	0.01960784
1075.20727539	0.01960784
1075.21154785	0.01960784
1075.21545410	0.01960784
1075.21545410	0.01960784
1075.21948242	0.01960784
1075.22363281	0.01960784
1075.22778320	0.01960784
1075.22778320	0.01960784
1075.23193359	0.01960784
1075.23583984	0.01960784
1075.23999023	0.01960784
1075.24414063	0.01960784
1075.24414063	0.01960784
1075.24829102	0.01960784
1075.25231934	0.01960784
1075.25646973	0.01960784
1075.25646973	0.01960784
1075.26062012	0.01960784
1075.26464844	0.01960784
1075.26867676	0.01960784
1075.27270508	0.01960784
1075.27270508	0.01960784
1075.27709961	0.01960784
1075.28100586	0.01960784
1075.28503418	0.01960784
1075.28503418	0.01960784
1075.28906250	0.01960784
1075.29321289	0.01960784
1075.29748535	0.01960784
1075.30151367	0.01960784
1075.30151367	0.01960784
1075.30566406	0.01960784
1075.30969238	0.01960784
1075.31372070	0.01960784
1075.31372070	0.01960784
1075.31787109	0.01960784
1075.32202148	0.01960784
1075.32617188	0.01960784
1075.33007813	0.01960784
1075.33007813	0.11764706
1075.33435059	0.80392158
1075.33850098	2.17647052
1075.34252930	3.31372547
1075.34252930	3.50980401
1075.34692383	3.58823538
1075.35058594	3.05882359
1075.35473633	2.00000000
1075.35876465	0.84313726
1075.35876465	0.01960784
1075.36291504	0.01960784
1075.36706543	0.01960784
1075.37109375	0.01960784
1075.37109375	0.01960784
1075.37524414	0.01960784
1075.37951660	0.01960784
1075.38342285	0.01960784
1075.38745117	0.01960784
1075.38745117	0.01960784
1075.39160156	0.01960784
1075.39587402	0.01960784
1075.40002441	0.01960784
1075.40002441	0.01960784
1075.40405273	0.01960784
1075.40820313	0.01960784
1075.41223145	0.01960784
1075.41625977	0.01960784
1075.41625977	0.01960784
1075.42016602	0.01960784
1075.42431641	0.01960784
1075.42858887	0.01960784
1075.42858887	0.01960784
1075.43249512	0.01960784
1075.43676758	0.01960784
1075.44079590	0.01960784
1075.44482422	0.01960784
1075.44885254	0.01960784
1075.45300293	0.01960784
1075.45703125	0.01960784
1075.45703125	0.01960784
1075.46130371	0.01960784
1075.46545410	0.01960784
1075.46960449	0.01960784
1075.47351074	0.01960784
1075.47766113	0.01960784
1075.48181152	0.01960784
1075.48583984	0.03921569
1075.48583984	0.01960784
1075.48999023	0.01960784
1075.49401855	0.01960784
1075.49804688	0.01960784
1075.50219727	0.23529412
1075.50622559	0.05882353
1075.51037598	0.01960784
1075.51452637	0.01960784
1075.51452637	0.01960784
1075.51867676	0.01960784
1075.52270508	0.05882353
1075.52673340	0.01960784
1075.53088379	0.01960784
1075.53503418	0.01960784
1075.53894043	0.01960784
1075.54309082	0.01960784
1075.54309082	0.01960784
1075.54748535	0.01960784
1075.55139160	0.01960784
1075.55554199	0.01960784
1075.55554199	0.01960784
1075.55944824	0.01960784
1075.56372070	0.01960784
1075.56774902	0.01960784
1075.57189941	0.01960784
1075.57189941	0.01960784
1075.57592773	0.01960784
1075.58007813	0.01960784
1075.58410645	0.01960784
1075.58410645	0.01960784
1075.58825684	0.01960784
1075.59216309	0.01960784
1075.59680176	0.01960784
1075.60046387	0.01960784
1075.60046387	0.01960784
1075.60461426	0.01960784
1075.60876465	0.01960784
1075.61279297	0.01960784
1075.61279297	0.27450982
1075.61694336	0.01960784
1075.62097168	0.01960784
1075.62512207	0.01960784
1075.62939453	0.01960784
1075.62939453	0.01960784
1075.63330078	0.01960784
1075.63732910	0.01960784
1075.64147949	0.01960784
1075.64147949	0.01960784
1075.64587402	0.01960784
1075.64965820	0.01960784
1075.65368652	0.01960784
1075.65795898	0.01960784
1075.65795898	0.01960784
1075.66210938	0.01960784
1075.66601563	0.01960784
1075.67004395	0.01960784
1075.67004395	0.01960784
1075.67419434	0.01960784
1075.67834473	0.01960784
1075.68237305	0.01960784
1075.68652344	0.35294119
1075.68652344	0.62745100
1075.69067383	1.33333337
1075.69470215	2.27450991
1075.69885254	3.50980401
1075.69885254	3.90196085
1075.70288086	4.01960802
1075.70690918	3.58823538
1075.71118164	2.54901958
1075.71520996	1.52941179
1075.71520996	0.62745100
1075.71936035	0.01960784
1075.72338867	0.01960784
1075.72741699	0.01960784
1075.72741699	0.01960784
1075.73168945	0.01960784
1075.73571777	0.01960784
1075.73974609	0.01960784
1075.74389648	0.01960784
1075.74389648	0.01960784
1075.74792480	0.01960784
1075.75207520	0.01960784
1075.75634766	0.03921569
1075.75634766	0.01960784
1075.76013184	0.01960784
1075.76428223	0.01960784
1075.76843262	0.01960784
1075.77258301	0.01960784
1075.77258301	0.01960784
1075.77673340	0.01960784
1075.78088379	0.05882353
1075.78491211	0.01960784
1075.78491211	0.01960784
1075.78894043	0.01960784
1075.79296875	0.01960784
1075.79724121	0.01960784
1075.80126953	0.35294119
1075.80541992	0.41176471
1075.80932617	0.29411766
1075.81347656	0.52941179
1075.81347656	0.64705884
1075.81762695	0.50980395
1075.82165527	0.52941179
1075.82580566	0.54901963
1075.83007813	1.19607842
1075.83398438	1.15686274
1075.83813477	1.13725495
1075.84216309	1.07843137
1075.84216309	1.15686274
1075.84680176	1.00000000
1075.85034180	0.94117647
1075.85449219	0.98039216
1075.85852051	1.45098042
1075.86279297	1.66666663
1075.86682129	1.52941179
1075.87084961	1.41176474
1075.87084961	1.43137252
1075.87500000	1.56862748
1075.87915039	1.64705884
1075.88317871	1.50980389
1075.88720703	0.82352942
1075.89135742	0.74509805
1075.89538574	0.64705884
1075.89978027	0.50980395
1075.89978027	0.66666669
1075.90380859	0.86274511
1075.90795898	0.66666669
1075.91210938	0.62745100
1075.91210938	0.56862748
1075.91589355	0.62745100
1075.92004395	0.98039216
1075.92407227	0.74509805
1075.92822266	0.49019608
1075.92822266	0.52941179
1075.93225098	0.45098040
1075.93640137	0.52941179
1075.94042969	0.80392158
1075.94042969	0.80392158
1075.94458008	0.84313726
1075.94873047	0.94117647
1075.95275879	1.01960790
1075.95678711	0.84313726
1075.95678711	0.86274511
1075.96093750	1.21568632
1075.96508789	1.11764705
1075.96936035	1.15686274
1075.96936035	1.19607842
1075.97351074	1.21568632
1075.97766113	1.23529410
1075.98156738	1.23529410
1075.98559570	1.17647064
1075.98559570	0.96078432
1075.98962402	0.86274511
1075.99377441	1.09803927
1075.99804688	1.29411769
1075.99804688	1.03921568
1076.00195313	0.80392158
1076.00598145	0.74509805
1076.01013184	1.03921568
1076.01428223	1.11764705
1076.01428223	1.11764705
1076.01831055	1.07843137
1076.02233887	0.84313726
1076.02648926	0.82352942
1076.02648926	0.72549021
1076.03063965	0.13725491
1076.03466797	0.03921569
1076.03869629	0.19607843
1076.04284668	0.47058824
1076.04284668	1.33333337
1076.04699707	2.31372547
1076.05102539	3.62745094
1076.05517578	4.98039198
1076.05517578	4.98039198
1076.05920410	4.98039198
1076.06335449	4.96078444
1076.06750488	4.76470566
1076.07177734	4.43137264
1076.07177734	3.82352948
1076.07568359	2.78431368
1076.07995605	2.07843137
1076.08398438	1.50980389
1076.08398438	0.82352942
1076.08801270	0.52941179
1076.09204102	0.58823532
1076.09631348	0.88235295
1076.10046387	1.03921568
1076.10046387	1.07843137
1076.10437012	1.05882359
1076.10852051	0.92156863
1076.11267090	0.86274511
1076.11267090	0.88235295
1076.11669922	0.94117647
1076.12072754	0.90196079
1076.12487793	1.01960790
1076.12927246	1.11764705
1076.12927246	1.43137252
1076.13305664	1.66666663
1076.13708496	1.56862748
1076.14123535	1.60784316
1076.14123535	1.80392158
1076.14550781	1.47058821
1076.14941406	1.17647064
1076.15344238	1.19607842
1076.15759277	1.39215684
1076.15759277	1.76470590
1076.16186523	1.86274505
1076.16577148	1.72549021
1076.16992188	1.96078432
1076.16992188	2.11764717
1076.17395020	1.82352936
1076.17810059	1.90196073
1076.18225098	2.19607854
1076.18627930	2.41176462
1076.19030762	2.00000000
1076.19445801	2.01960778
1076.19873047	2.09803915
1076.19873047	1.94117641
1076.20275879	1.98039210
1076.20703125	2.33333325
1076.21081543	2.49019599
1076.21496582	2.74509811
1076.21911621	2.72549009
1076.22326660	2.62745094
1076.22753906	2.56862736
1076.22753906	2.49019599
1076.23144531	2.37254906
1076.23535156	2.17647052
1076.23950195	1.98039210
1076.24365234	1.98039210
1076.24792480	1.90196073
1076.25183105	2.00000000
1076.25598145	2.07843137
1076.25598145	1.68627453
1076.26000977	1.56862748
1076.26416016	1.70588231
1076.26818848	1.80392158
1076.27233887	1.80392158
1076.27636719	1.78431368
1076.28051758	1.82352936
1076.28454590	1.76470590
1076.28454590	1.62745094
1076.28881836	1.50980389
1076.29272461	1.56862748
1076.29687500	1.60784316
1076.30090332	2.33333325
1076.30517578	1.72549021
1076.30908203	1.60784316
1076.31323242	1.68627453
1076.31323242	1.76470590
1076.31738281	1.88235295
1076.32165527	1.78431368
1076.32556152	1.64705884
1076.32556152	1.58823526
1076.32983398	1.70588231
1076.33374023	1.72549021
1076.33789063	1.82352936
1076.34204102	1.82352936
1076.34204102	1.58823526
1076.34631348	1.92156863
1076.35021973	2.03921580
1076.35424805	1.92156863
1076.35424805	1.80392158
1076.35839844	1.72549021
1076.36242676	1.70588231
1076.36657715	1.78431368
1076.37072754	1.90196073
1076.37072754	1.92156863
1076.37475586	1.90196073
1076.37902832	1.66666663
1076.38293457	1.29411769
1076.38293457	0.78431374
1076.38708496	0.43137255
1076.39111328	0.39215687
1076.39526367	0.62745100
1076.39929199	1.29411769
1076.39929199	2.35294127
1076.40332031	3.64705873
1076.40759277	4.98039198
1076.41186523	4.98039198
1076.41186523	4.98039198
1076.41589355	4.98039198
1076.41992188	4.98039198
1076.42407227	4.98039198
1076.42797852	4.80392170
1076.42797852	3.96078420
1076.43212891	2.76470590
1076.43615723	2.05882359
1076.44055176	1.66666663
1076.44055176	1.52941179
1076.44433594	1.27450979
1076.44848633	1.21568632
1076.45251465	1.19607842
1076.45678711	1.23529410
1076.45678711	1.17647064
1076.46069336	1.15686274
1076.46484375	1.21568632
1076.46899414	1.37254906
1076.46899414	1.50980389
1076.47290039	1.47058821
1076.47705078	1.45098042
1076.48144531	1.43137252
1076.48559570	1.54901958
1076.48559570	1.47058821
1076.48937988	1.56862748
1076.49353027	1.58823526
1076.49816895	1.60784316
1076.49816895	1.88235295
1076.50183105	2.09803915
1076.50573730	2.03921580
1076.50976563	2.07843137
1076.51391602	2.11764717
1076.51391602	2.17647052
1076.51818848	2.25490189
1076.52209473	2.49019599
1076.52624512	2.60784316
1076.52624512	2.68627453
1076.53039551	2.72549009
1076.53454590	2.74509811
1076.53857422	2.98039222
1076.54272461	3.05882359
1076.54272461	3.07843137
1076.54699707	3.00000000
1076.55090332	2.96078420
1076.55493164	3.17647052
1076.55493164	3.09803915
1076.55895996	3.03921580
1076.56323242	2.92156863
1076.56726074	2.94117641
1076.57141113	3.09803915
1076.57531738	2.94117641
1076.57946777	2.72549009
1076.58374023	2.62745094
1076.58374023	2.50980401
1076.58764648	2.52941179
1076.59191895	2.31372547
1076.59606934	2.00000000
1076.59997559	1.80392158
1076.60412598	1.80392158
1076.60827637	1.66666663
1076.61254883	1.56862748
1076.61254883	1.33333337
1076.61669922	1.33333337
1076.62048340	1.21568632
1076.62463379	1.23529410
1076.62878418	1.09803927
1076.63281250	1.01960790
1076.63684082	1.05882359
1076.64099121	1.05882359
1076.64099121	1.00000000
1076.64514160	0.76470590
1076.64916992	0.74509805
1076.65319824	0.98039216
1076.65734863	0.66666669
1076.66149902	0.64705884
1076.66552734	0.60784316
1076.66979980	0.70588237
1076.66979980	0.52941179
1076.67395020	0.50980395
1076.67785645	0.64705884
1076.68200684	0.88235295
1076.68200684	0.88235295
1076.68591309	0.70588237
1076.69018555	0.41176471
1076.69433594	0.37254903
1076.69836426	0.27450982
1076.69836426	0.37254903
1076.70239258	0.07843138
1076.70654297	0.35294119
1076.71069336	0.60784316
1076.71069336	0.58823532
1076.71472168	0.37254903
1076.71875000	0.33333334
1076.72277832	0.37254903
1076.72692871	0.27450982
1076.72692871	0.35294119
1076.73120117	0.27450982
1076.73535156	0.15686275
1076.73925781	0.01960784
1076.73925781	0.01960784
1076.74340820	0.01960784
1076.74755859	0.01960784
1076.75158691	0.17647059
1076.75573730	0.35294119
1076.75573730	0.90196079
1076.75976563	2.01960778
1076.76391602	3.15686274
1076.76806641	4.64705896
1076.76806641	4.98039198
1076.77209473	4.98039198
1076.77612305	4.98039198
1076.78027344	4.72549009
1076.78442383	4.21568632
1076.78442383	3.45098042
1076.78845215	2.78431368
1076.79248047	2.43137264
1076.79699707	2.01960778
1076.79699707	1.74509799
1076.80078125	1.60784316
1076.80480957	1.82352936
1076.80883789	2.05882359
1076.81311035	2.01960778
1076.81311035	1.86274505
1076.81713867	1.92156863
1076.82128906	2.17647052
1076.82543945	2.27450991
1076.82543945	2.05882359
1076.82946777	1.92156863
1076.83361816	1.82352936
1076.83752441	1.90196073
1076.84167480	2.05882359
1076.84167480	2.27450991
1076.84594727	2.58823538
1076.84985352	2.64705873
1076.85388184	2.66666675
1076.85388184	3.00000000
1076.85815430	2.92156863
1076.86242676	2.52941179
1076.86633301	2.43137264
1076.87048340	2.41176462
1076.87048340	2.56862736
1076.87451172	2.74509811
1076.87878418	2.90196085
1076.88281250	2.96078420
1076.88281250	2.80392146
1076.88671875	2.80392146
1076.89086914	3.23529410
1076.89526367	3.25490189
1076.89916992	3.15686274
1076.89916992	3.35294127
1076.90307617	3.27450991
1076.90722656	3.58823538
1076.91137695	3.49019599
1076.91137695	3.23529410
1076.91540527	3.52941179
1076.91955566	3.74509811
1076.92370605	3.50980401
1076.92797852	2.96078420
1076.93188477	2.94117641
1076.93591309	3.01960778
1076.93994141	3.19607854
1076.93994141	3.19607854
1076.94409180	2.96078420
1076.94824219	2.56862736
1076.95227051	2.50980401
1076.95654297	2.37254906
1076.96044922	2.31372547
1076.96459961	2.35294127
1076.96875000	2.49019599
1076.96875000	2.66666675
1076.97265625	2.43137264
1076.97692871	1.90196073
1076.98095703	1.66666663
1076.98510742	1.74509799
1076.98913574	1.84313726
1076.99353027	1.80392158
1076.99731445	1.74509799
1076.99731445	1.72549021
1077.00146484	1.39215684
1077.00561523	1.27450979
1077.00988770	1.37254906
1077.01403809	1.33333337
1077.01782227	1.39215684
1077.02185059	1.45098042
1077.02600098	1.45098042
1077.02600098	1.35294116
1077.03015137	1.35294116
1077.03417969	1.21568632
1077.03833008	1.13725495
1077.03833008	1.07843137
1077.04235840	0.98039216
1077.04663086	1.03921568
1077.05053711	1.25490201
1077.05480957	1.29411769
1077.05480957	1.07843137
1077.05871582	0.94117647
1077.06311035	0.98039216
1077.06701660	0.98039216
1077.06701660	1.09803927
1077.07116699	1.09803927
1077.07531738	1.13725495
1077.07946777	1.03921568
1077.08337402	1.13725495
1077.08337402	1.25490201
1077.08752441	1.07843137
1077.09155273	0.94117647
1077.09606934	0.72549021
1077.09606934	0.52941179
1077.09973145	0.25490198
1077.10388184	0.15686275
1077.10803223	0.11764706
1077.11230469	0.03921569
1077.11230469	0.33333334
1077.11621094	1.01960790
1077.12023926	1.80392158
1077.12438965	2.82352948
1077.12438965	3.96078420
1077.12841797	4.98039198
1077.13244629	4.98039198
1077.13659668	4.86274529
1077.14074707	4.58823538
1077.14074707	3.86274505
1077.14477539	3.07843137
1077.14880371	2.17647052
1077.15295410	1.35294116
1077.15295410	1.19607842
1077.15710449	0.62745100
1077.16125488	0.47058824
1077.16540527	0.49019608
1077.16931152	0.68627453
1077.16931152	0.56862748
1077.17358398	0.56862748
1077.17773438	0.64705884
1077.18176270	0.56862748
1077.18176270	0.80392158
1077.18579102	0.88235295
1077.18994141	0.90196079
1077.19396973	1.05882359
1077.19812012	0.92156863
1077.19812012	1.01960790
1077.20214844	0.98039216
1077.20617676	0.96078432
1077.21044922	1.05882359
1077.21044922	1.09803927
1077.21447754	1.00000000
1077.21838379	1.05882359
1077.22265625	1.13725495
1077.22680664	1.29411769
1077.22680664	1.35294116
1077.23095703	1.35294116
1077.23498535	1.47058821
1077.23913574	1.50980389
1077.23913574	1.58823526
1077.24328613	1.62745094
1077.24731445	1.70588231
1077.25134277	1.88235295
1077.25549316	2.00000000
1077.25549316	2.03921580
1077.25939941	2.21568632
1077.26391602	2.29411769
1077.26770020	2.31372547
1077.26770020	2.23529410
1077.27172852	2.29411769
1077.27587891	2.41176462
1077.28002930	2.58823538
1077.28417969	2.86274505
1077.28820801	2.88235283
1077.29223633	2.78431368
1077.29663086	2.68627453
1077.29663086	2.58823538
1077.30065918	2.47058821
1077.30505371	2.43137264
1077.30883789	2.25490189
1077.31298828	2.23529410
1077.31689453	2.31372547
1077.32104492	2.23529410
1077.32519531	2.09803915
1077.32519531	1.96078432
1077.32922363	1.86274505
1077.33325195	1.90196073
1077.33752441	1.92156863
1077.34155273	1.82352936
1077.34570313	1.78431368
1077.34973145	1.72549021
1077.35375977	1.64705884
1077.35375977	1.74509799
1077.35791016	1.74509799
1077.36193848	1.21568632
1077.36608887	1.09803927
1077.37011719	1.07843137
1077.37438965	1.17647064
1077.37841797	1.11764705
1077.38244629	1.13725495
1077.38244629	1.13725495
1077.38647461	1.05882359
1077.39062500	1.09803927
1077.39477539	1.15686274
1077.39880371	0.66666669
1077.40295410	0.60784316
1077.40698242	0.52941179
1077.41113281	0.52941179
1077.41113281	0.39215687
1077.41516113	0.29411766
1077.41918945	0.35294119
1077.42346191	0.39215687
1077.42346191	0.43137255
1077.42773438	0.43137255
1077.43176270	0.49019608
1077.43603516	0.47058824
1077.43981934	0.56862748
1077.43981934	0.60784316
1077.44384766	0.76470590
1077.44812012	0.96078432
1077.45202637	0.72549021
1077.45202637	0.17647059
1077.45605469	0.01960784
1077.46020508	0.01960784
1077.46435547	0.01960784
1077.46850586	0.01960784
1077.46850586	0.01960784
1077.47253418	0.31372550
1077.47656250	1.05882359
1077.48071289	2.21568632
1077.48071289	3.50980401
1077.48486328	4.98039198
1077.48889160	4.98039198
1077.49291992	4.98039198
1077.49731445	4.96078444
1077.49731445	4.70588255
1077.50122070	3.94117641
1077.50524902	2.84313726
1077.50927734	1.60784316
1077.50927734	0.76470590
1077.51367188	0.39215687
1077.51770020	0.11764706
1077.52172852	0.01960784
1077.52563477	0.01960784
1077.52563477	0.11764706
1077.52990723	0.03921569
1077.53405762	0.01960784
1077.53808594	0.01960784
1077.53808594	0.01960784
1077.54211426	0.07843138
1077.54663086	0.47058824
1077.55029297	0.23529412
1077.55444336	0.33333334
1077.55444336	0.37254903
1077.55847168	0.49019608
1077.56274414	0.39215687
1077.56689453	0.37254903
1077.56689453	0.45098040
1077.57092285	0.58823532
1077.57482910	0.76470590
1077.57910156	0.92156863
1077.58312988	0.98039216
1077.58312988	1.07843137
1077.58715820	1.13725495
1077.59130859	1.25490201
1077.59570313	1.35294116
1077.59570313	1.50980389
1077.59948730	1.45098042
1077.60363770	1.41176474
1077.60803223	1.54901958
1077.61181641	1.50980389
1077.61181641	1.68627453
1077.61584473	1.78431368
1077.61999512	1.60784316
1077.62438965	1.82352936
1077.62438965	2.03921580
1077.62817383	2.31372547
1077.63232422	2.17647052
1077.63635254	2.15686274
1077.64086914	2.15686274
1077.64465332	2.17647052
1077.64880371	2.13725495
1077.65270996	2.05882359
1077.65270996	2.00000000
1077.65698242	2.00000000
1077.66101074	1.78431368
1077.66516113	1.50980389
1077.66906738	1.49019611
1077.67321777	1.29411769
1077.67736816	1.25490201
1077.68151855	1.13725495
1077.68151855	1.00000000
1077.68579102	1.27450979
1077.68981934	1.13725495
1077.69372559	0.92156863
1077.69787598	0.33333334
1077.70178223	0.31372550
1077.70593262	0.31372550
1077.71008301	0.31372550
1077.71008301	0.05882353
1077.71423340	0.01960784
1077.71826172	0.01960784
1077.72241211	0.03921569
1077.72644043	0.01960784
1077.73059082	0.01960784
1077.73474121	0.01960784
1077.73864746	0.03921569
1077.73864746	0.01960784
1077.74291992	0.11764706
1077.74719238	0.17647059
1077.75109863	0.01960784
1077.75512695	0.01960784
1077.75915527	0.01960784
1077.76354980	0.01960784
1077.76757813	0.01960784
1077.76757813	0.01960784
1077.77160645	0.01960784
1077.77575684	0.01960784
1077.77966309	0.01960784
1077.77966309	0.01960784
1077.78393555	0.01960784
1077.78796387	0.01960784
1077.79199219	0.01960784
1077.79638672	0.01960784
1077.79638672	0.01960784
1077.80017090	0.03921569
1077.80432129	0.01960784
1077.80871582	0.01960784
1077.80871582	0.01960784
1077.81274414	0.01960784
1077.81665039	0.01960784
1077.82080078	0.01960784
1077.82482910	0.01960784
1077.82482910	0.01960784
1077.82897949	0.01960784
1077.83300781	0.33333334
1077.83715820	1.11764705
1077.83715820	2.00000000
1077.84130859	3.01960778
1077.84521484	4.27450991
1077.84936523	4.98039198
1077.85339355	4.94117641
1077.85339355	4.58823538
1077.85754395	4.19607830
1077.86181641	3.41176462
1077.86572266	2.29411769
1077.86572266	1.03921568
1077.86987305	0.29411766
1077.87414551	0.01960784
1077.87817383	0.01960784
1077.88232422	0.01960784
1077.88232422	0.01960784
1077.88623047	0.01960784
1077.89038086	0.01960784
1077.89453125	0.01960784
1077.89453125	0.01960784
1077.89855957	0.01960784
1077.90270996	0.01960784
1077.90673828	0.01960784
1077.91076660	0.01960784
1077.91076660	0.01960784
1077.91491699	0.01960784
1077.91894531	0.01960784
1077.92309570	0.03921569
1077.92309570	0.15686275
1077.92724609	0.01960784
1077.93151855	0.01960784
1077.93566895	0.01960784
1077.93969727	0.03921569
1077.93969727	0.01960784
1077.94384766	0.01960784
1077.94775391	0.01960784
1077.95190430	0.11764706
1077.95190430	0.09803922
1077.95593262	0.21568628
1077.95996094	0.35294119
1077.96411133	0.23529412
1077.96813965	0.07843138
1077.96813965	0.07843138
1077.97216797	0.15686275
1077.97644043	0.25490198
1077.98046875	0.27450982
1077.98046875	0.27450982
1077.98461914	0.37254903
1077.98864746	0.23529412
1077.99267578	0.01960784
1077.99707031	0.01960784
1078.00122070	0.01960784
1078.00512695	0.01960784
1078.00927734	0.09803922
1078.00927734	0.15686275
1078.01330566	0.01960784
1078.01733398	0.01960784
1078.02160645	0.01960784
1078.02539063	0.01960784
1078.02966309	0.01960784
1078.03369141	0.01960784
1078.03808594	0.01960784
1078.03808594	0.01960784
1078.04187012	0.01960784
1078.04626465	0.01960784
1078.05017090	0.01960784
1078.05419922	0.01960784
1078.05834961	0.01960784
1078.06262207	0.01960784
1078.06665039	0.01960784
1078.06665039	0.01960784
1078.07055664	0.01960784
1078.07470703	0.01960784
1078.07873535	0.01960784
1078.08288574	0.01960784
1078.08703613	0.01960784
1078.09106445	0.01960784
1078.09521484	0.19607843
1078.09521484	0.29411766
1078.09924316	0.29411766
1078.10339355	0.07843138
1078.10742188	0.15686275
1078.11157227	0.21568628
1078.11572266	0.07843138
1078.11962891	0.01960784
1078.12390137	0.01960784
1078.12390137	0.09803922
1078.12792969	0.09803922
1078.13195801	0.03921569
1078.13610840	0.11764706
1078.13610840	0.01960784
1078.14025879	0.23529412
1078.14440918	0.39215687
1078.14855957	0.23529412
1078.15246582	0.47058824
1078.15246582	0.84313726
1078.15661621	0.64705884
1078.16076660	0.31372550
1078.16491699	0.33333334
1078.16491699	0.56862748
1078.16882324	0.21568628
1078.17297363	0.01960784
1078.17712402	0.01960784
1078.18127441	0.01960784
1078.18127441	0.01960784
1078.18530273	0.01960784
1078.18933105	0.07843138
1078.19372559	0.33333334
1078.19372559	0.88235295
1078.19763184	1.66666663
1078.20178223	2.43137264
1078.20568848	3.35294127
1078.20983887	4.31372547
1078.20983887	4.54901981
1078.21411133	4.74509811
1078.21813965	4.13725471
1078.22204590	3.39215684
1078.22204590	2.72549009
1078.22619629	1.74509799
1078.23034668	0.90196079
1078.23449707	0.11764706
1078.23864746	0.01960784
1078.23864746	0.01960784
1078.24267578	0.01960784
1078.24682617	0.01960784
1078.25085449	0.01960784
1078.25085449	0.11764706
1078.25500488	0.27450982
1078.25903320	0.35294119
1078.26318359	0.49019608
1078.26721191	0.58823532
1078.26721191	0.45098040
1078.27136230	0.76470590
1078.27539063	0.84313726
1078.27966309	0.74509805
1078.27966309	0.64705884
1078.28356934	0.76470590
1078.28771973	0.90196079
1078.29174805	1.09803927
1078.29614258	1.29411769
1078.29614258	1.45098042
1078.30004883	1.80392158
1078.30407715	1.72549021
1078.30822754	1.72549021
1078.30822754	1.78431368
1078.31250000	1.78431368
1078.31652832	2.01960778
1078.32055664	2.17647052
1078.32470703	2.19607854
1078.32470703	2.15686274
1078.32873535	2.37254906
1078.33276367	2.47058821
1078.33691406	2.45098042
1078.33691406	2.50980401
1078.34094238	2.33333325
1078.34497070	2.45098042
1078.34912109	2.50980401
1078.35327148	2.58823538
1078.35327148	2.60784316
1078.35766602	2.58823538
1078.36145020	2.62745094
1078.36560059	2.68627453
1078.36560059	2.68627453
1078.36962891	2.49019599
1078.37365723	2.41176462
1078.37792969	2.74509811
1078.38183594	2.09803915
1078.38598633	1.96078432
1078.39001465	1.92156863
1078.39416504	1.86274505
1078.39416504	1.74509799
1078.39831543	1.66666663
1078.40246582	1.54901958
1078.40649414	1.62745094
1078.41064453	1.41176474
1078.41479492	1.50980389
1078.41870117	1.27450979
1078.42297363	1.00000000
1078.42297363	0.96078432
1078.42700195	1.13725495
1078.43115234	1.31372547
1078.43542480	1.31372547
1078.43945313	1.21568632
1078.44348145	1.27450979
1078.44775391	1.37254906
1078.45178223	1.54901958
1078.45178223	1.56862748
1078.45581055	1.47058821
1078.45971680	1.27450979
1078.46398926	1.39215684
1078.46813965	1.19607842
1078.47204590	1.25490201
1078.47619629	1.37254906
1078.48034668	1.09803927
1078.48034668	1.05882359
1078.48449707	0.96078432
1078.48840332	0.94117647
1078.49255371	0.94117647
1078.49255371	0.90196079
1078.49682617	1.13725495
1078.50073242	1.23529410
1078.50476074	1.13725495
1078.50891113	1.25490201
1078.50891113	1.25490201
1078.51330566	1.35294116
1078.51721191	1.31372547
1078.52124023	1.47058821
1078.52124023	1.60784316
1078.52514648	1.43137252
1078.52941895	1.15686274
1078.53356934	1.00000000
1078.53759766	0.92156863
1078.53759766	0.68627453
1078.54174805	0.62745100
1078.54589844	0.37254903
1078.54980469	0.47058824
1078.54980469	0.58823532
1078.55395508	0.98039216
1078.55810547	1.82352936
1078.56213379	2.84313726
1078.56628418	3.86274505
1078.56628418	4.98039198
1078.57031250	4.98039198
1078.57482910	4.98039198
1078.57861328	4.80392170
1078.57861328	4.37254906
1078.58276367	4.00000000
1078.58666992	3.23529410
1078.59082031	2.43137264
1078.59497070	1.49019611
1078.59497070	1.11764705
1078.59899902	1.00000000
1078.60314941	0.96078432
1078.60729980	1.01960790
1078.60729980	1.21568632
1078.61132813	1.47058821
1078.61535645	1.15686274
1078.61950684	1.27450979
1078.62365723	1.45098042
1078.62365723	1.17647064
1078.62768555	1.01960790
1078.63171387	1.23529410
1078.63586426	1.31372547
1078.63586426	1.64705884
1078.64001465	1.92156863
1078.64416504	1.50980389
1078.64819336	1.47058821
1078.65222168	1.49019611
1078.65222168	1.58823526
1078.65637207	1.70588231
1078.66052246	1.74509799
1078.66455078	1.78431368
1078.66455078	1.86274505
1078.66870117	1.90196073
1078.67272949	1.98039210
1078.67675781	2.07843137
1078.68090820	2.23529410
1078.68090820	2.52941179
1078.68505859	2.68627453
1078.68908691	2.58823538
1078.69323730	2.49019599
1078.69323730	2.52941179
1078.69750977	2.66666675
1078.70141602	2.82352948
1078.70556641	2.82352948
1078.70971680	2.82352948
1078.70971680	2.88235283
1078.71398926	3.03921580
1078.71789551	3.21568632
1078.72192383	3.23529410
1078.72192383	3.03921580
1078.72595215	3.03921580
1078.73010254	3.00000000
1078.73425293	2.96078420
1078.73828125	2.92156863
1078.74243164	2.96078420
1078.74670410	3.19607854
1078.75061035	2.76470590
1078.75061035	2.70588231
1078.75463867	2.58823538
1078.75878906	2.41176462
1078.76306152	2.35294127
1078.76696777	2.43137264
1078.77111816	2.47058821
1078.77502441	2.33333325
1078.77929688	2.13725495
1078.77929688	2.09803915
1078.78344727	2.11764717
1078.78747559	1.98039210
1078.79150391	2.00000000
1078.79589844	1.98039210
1078.79968262	1.84313726
1078.80383301	1.74509799
1078.80798340	1.76470590
1078.80798340	2.00000000
1078.81201172	1.98039210
1078.81604004	2.01960778
1078.82031250	1.84313726
1078.82446289	1.58823526
1078.82849121	1.50980389
1078.83251953	1.45098042
1078.83654785	1.54901958
1078.83654785	1.56862748
1078.84069824	1.45098042
1078.84472656	1.52941179
1078.84887695	1.29411769
1078.85290527	1.07843137
1078.85766602	1.21568632
1078.86120605	1.09803927
1078.86535645	0.88235295
1078.86535645	0.92156863
1078.86938477	1.05882359
1078.87341309	1.23529410
1078.87756348	1.15686274
1078.87756348	1.29411769
1078.88183594	1.27450979
1078.88598633	1.25490201
1078.88989258	1.15686274
1078.89392090	1.05882359
1078.89392090	0.90196079
1078.89819336	0.68627453
1078.90209961	0.21568628
1078.90625000	0.01960784
1078.90625000	0.13725491
1078.91040039	0.41176471
1078.91442871	0.80392158
1078.91845703	1.66666663
1078.92272949	2.62745094
1078.92272949	3.84313726
1078.92663574	4.98039198
1078.93090820	4.98039198
1078.93505859	4.98039198
1078.93505859	4.98039198
1078.93896484	4.78431368
1078.94335938	4.29411745
1078.94738770	3.33333325
1078.95166016	2.39215684
1078.95166016	1.52941179
1078.95556641	0.94117647
1078.95959473	0.64705884
1078.96374512	0.60784316
1078.96374512	0.64705884
1078.96777344	0.64705884
1078.97192383	0.72549021
1078.97583008	1.00000000
1078.97998047	0.94117647
1078.97998047	0.62745100
1078.98413086	0.78431374
1078.98815918	1.01960790
1078.99218750	0.72549021
1078.99218750	0.49019608
1078.99658203	0.58823532
1079.00048828	0.56862748
1079.00451660	0.76470590
1079.00866699	0.86274511
1079.00866699	0.94117647
1079.01293945	0.98039216
1079.01708984	1.07843137
1079.02111816	1.29411769
1079.02111816	1.50980389
1079.02502441	1.64705884
1079.02917480	1.68627453
1079.03332520	1.70588231
1079.03747559	1.96078432
1079.03747559	1.98039210
1079.04138184	1.94117641
1079.04553223	2.11764717
1079.04968262	2.31372547
1079.04968262	2.64705873
1079.05383301	2.72549009
1079.05773926	2.84313726
1079.06188965	2.82352948
1079.06628418	2.54901958
1079.06628418	2.66666675
1079.07006836	2.74509811
1079.07434082	2.76470590
1079.07836914	2.86274505
1079.07836914	2.90196085
1079.08251953	2.84313726
1079.08654785	3.01960778
1079.09057617	3.01960778
1079.09472656	2.94117641
1079.09472656	2.96078420
1079.09875488	3.03921580
1079.10290527	3.09803915
1079.10693359	3.00000000
1079.10693359	2.80392146
1079.11108398	2.62745094
1079.11511230	2.56862736
1079.11926270	2.72549009
1079.12341309	2.56862736
1079.12768555	2.21568632
1079.13146973	2.19607854
1079.13574219	1.96078432
1079.13574219	1.94117641
1079.13977051	1.90196073
1079.14416504	1.82352936
1079.14807129	1.78431368
1079.15197754	2.09803915
1079.15600586	2.11764717
1079.16027832	1.94117641
1079.16442871	1.76470590
1079.16442871	1.68627453
1079.16833496	1.58823526
1079.17248535	1.66666663
1079.17663574	1.68627453
1079.18078613	1.88235295
1079.18469238	1.66666663
1079.18884277	1.70588231
1079.19299316	1.54901958
1079.19299316	1.50980389
1079.19702148	1.56862748
1079.20129395	1.47058821
1079.20544434	1.39215684
1079.20935059	1.43137252
1079.21350098	1.54901958
1079.21752930	1.49019611
1079.22167969	1.37254906
1079.22167969	1.54901958
1079.22570801	1.52941179
1079.22985840	1.49019611
1079.23400879	1.62745094
1079.23400879	1.50980389
1079.23803711	1.05882359
1079.24206543	0.94117647
1079.24682617	0.80392158
1079.25036621	0.86274511
1079.25036621	0.94117647
1079.25451660	1.00000000
1079.25854492	0.86274511
1079.26293945	0.54901963
1079.26293945	0.35294119
1079.26696777	0.19607843
1079.27087402	0.47058824
1079.27490234	0.86274511
1079.27905273	1.33333337
1079.27905273	2.23529410
1079.28308105	3.15686274
1079.28723145	4.25490189
1079.29138184	4.98039198
1079.29138184	4.98039198
1079.29528809	4.98039198
1079.29943848	4.72549009
1079.30358887	4.45098019
1079.30761719	3.60784316
1079.30761719	2.41176462
1079.31164551	1.47058821
1079.31604004	1.03921568
1079.31994629	0.80392158
1079.31994629	0.80392158
1079.32409668	0.62745100
1079.32824707	0.62745100
1079.33288574	0.82352942
1079.33642578	0.74509805
1079.33642578	0.78431374
1079.34045410	0.64705884
1079.34448242	0.47058824
1079.34875488	0.64705884
1079.34875488	0.94117647
1079.35278320	1.13725495
1079.35681152	0.92156863
1079.36096191	0.92156863
1079.36499023	1.03921568
1079.36499023	1.39215684
1079.36901855	1.21568632
1079.37329102	1.23529410
1079.37744141	1.23529410
1079.37744141	1.23529410
1079.38134766	1.45098042
1079.38549805	1.56862748
1079.38964844	1.58823526
1079.39404297	1.62745094
1079.39404297	1.76470590
1079.39794922	2.05882359
1079.40185547	2.09803915
1079.40588379	2.07843137
1079.40588379	2.49019599
1079.41003418	2.25490189
1079.41418457	2.05882359
1079.41821289	2.01960778
1079.42236328	2.13725495
1079.42236328	2.33333325
1079.42663574	2.31372547
1079.43054199	2.60784316
1079.43481445	2.60784316
1079.43481445	2.47058821
1079.43884277	2.39215684
1079.44287109	2.45098042
1079.44702148	2.64705873
1079.45117188	2.94117641
1079.45117188	2.58823538
1079.45532227	2.47058821
1079.45947266	2.45098042
1079.46350098	2.43137264
1079.46350098	2.35294127
1079.46752930	2.39215684
1079.47155762	2.31372547
1079.47570801	2.00000000
1079.47985840	2.09803915
1079.48400879	2.15686274
1079.48791504	1.82352936
1079.49194336	1.64705884
1079.49194336	1.72549021
1079.49621582	1.43137252
1079.50024414	1.43137252
1079.50439453	1.60784316
1079.50842285	1.41176474
1079.51269531	1.49019611
1079.51660156	1.50980389
1079.52087402	1.58823526
1079.52087402	1.62745094
1079.52490234	1.35294116
1079.52905273	1.39215684
1079.53308105	1.37254906
1079.53710938	1.64705884
1079.54113770	1.64705884
1079.54528809	1.62745094
1079.54931641	1.47058821
1079.54931641	1.68627453
1079.55346680	1.56862748
1079.55773926	1.52941179
1079.56164551	1.25490201
1079.56567383	1.13725495
1079.56982422	0.94117647
1079.57397461	1.03921568
1079.57812500	1.29411769
1079.57812500	1.50980389
1079.58239746	1.35294116
1079.58642578	1.31372547
1079.59033203	1.39215684
1079.59448242	1.62745094
1079.59851074	1.29411769
1079.60253906	1.31372547
1079.60668945	1.58823526
1079.60668945	1.27450979
1079.61083984	1.05882359
1079.61486816	1.09803927
1079.61889648	1.39215684
1079.61889648	1.33333337
1079.62316895	0.98039216
1079.62719727	0.41176471
1079.63134766	0.23529412
1079.63537598	0.33333334
1079.63537598	0.90196079
1079.63952637	1.90196073
1079.64367676	2.64705873
1079.64794922	3.27450991
1079.64794922	4.29411745
1079.65185547	4.98039198
1079.65588379	4.98039198
1079.66003418	4.98039198
1079.66418457	4.98039198
1079.66418457	4.64705896
1079.66809082	3.94117641
1079.67224121	3.13725495
1079.67639160	2.07843137
1079.67639160	1.58823526
1079.68054199	1.15686274
1079.68457031	1.39215684
1079.68872070	1.15686274
1079.69274902	1.03921568
1079.69274902	1.25490201
1079.69689941	1.29411769
1079.70080566	1.21568632
1079.70495605	1.43137252
1079.70495605	1.50980389
1079.70922852	1.54901958
1079.71350098	1.50980389
1079.71740723	1.60784316
1079.72155762	1.49019611
1079.72155762	1.70588231
1079.72546387	1.84313726
1079.72973633	2.05882359
1079.73376465	2.01960778
1079.73376465	2.05882359
1079.73779297	1.86274505
1079.74194336	1.84313726
1079.74597168	1.86274505
1079.75012207	2.25490189
1079.75012207	2.23529410
1079.75427246	2.09803915
1079.75830078	2.35294127
1079.76245117	2.43137264
1079.76245117	2.33333325
1079.76647949	2.29411769
1079.77062988	2.33333325
1079.77490234	2.45098042
1079.77880859	2.56862736
1079.77880859	2.86274505
1079.78283691	3.13725495
1079.78698730	3.25490189
1079.79113770	3.33333325
1079.79113770	2.96078420
1079.79504395	3.01960778
1079.79931641	3.29411769
1079.80334473	3.31372547
1079.80749512	3.37254906
1079.80749512	3.25490189
1079.81140137	3.29411769
1079.81567383	3.37254906
1079.81970215	3.03921580
1079.81970215	3.01960778
1079.82385254	2.86274505
1079.82788086	2.94117641
1079.83203125	2.90196085
1079.83630371	3.31372547
1079.83630371	3.19607854
1079.84020996	2.80392146
1079.84436035	2.54901958
1079.84851074	2.60784316
1079.84851074	2.23529410
1079.85253906	2.17647052
1079.85656738	2.17647052
1079.86071777	2.37254906
1079.86474609	2.23529410
1079.86877441	2.19607854
1079.87304688	2.07843137
1079.87719727	2.70588231
1079.87719727	2.29411769
1079.88110352	2.00000000
1079.88525391	2.13725495
1079.88940430	2.09803915
1079.89343262	2.09803915
1079.89782715	2.21568632
1079.90185547	2.25490189
1079.90588379	2.17647052
1079.90588379	2.31372547
1079.90991211	2.11764717
1079.91406250	2.17647052
1079.91809082	2.17647052
1079.92211914	2.19607854
1079.92614746	1.92156863
1079.93041992	1.96078432
1079.93444824	1.58823526
1079.93444824	1.68627453
1079.93847656	1.70588231
1079.94262695	1.80392158
1079.94689941	1.80392158
1079.95092773	1.76470590
1079.95495605	1.70588231
1079.95922852	1.66666663
1079.96337891	1.41176474
1079.96337891	1.47058821
1079.96752930	1.82352936
1079.97119141	1.86274505
1079.97534180	1.72549021
1079.97961426	1.54901958
1079.98364258	1.25490201
1079.98767090	1.01960790
1079.99169922	0.88235295
1079.99169922	0.56862748
1079.99597168	0.70588237
1080.00000000	1.03921568
1080.00451660	2.00000000
1080.00451660	2.82352948
1080.00805664	3.60784316
1080.01257324	4.29411745
1080.01635742	4.98039198
1080.02050781	4.82352924
1080.02050781	4.76470566
1080.02453613	4.45098019
1080.02905273	4.03921556
1080.03271484	3.82352948
1080.03271484	2.66666675
1080.03698730	1.86274505
1080.04101563	1.39215684
1080.04492188	1.13725495
1080.04919434	0.98039216
1080.04919434	1.09803927
1080.05322266	1.19607842
1080.05737305	1.35294116
1080.06152344	1.72549021
1080.06152344	1.96078432
1080.06555176	1.64705884
1080.06958008	1.66666663
1080.07373047	1.37254906
1080.07788086	1.52941179
1080.07788086	1.78431368
1080.08190918	1.84313726
1080.08593750	1.70588231
1080.09008789	1.78431368
1080.09008789	1.90196073
1080.09436035	2.13725495
1080.09826660	2.05882359
1080.10241699	2.11764717
1080.10644531	2.21568632
1080.10644531	2.47058821
1080.11059570	2.03921580
1080.11486816	2.07843137
1080.11865234	2.31372547
1080.11865234	2.56862736
1080.12280273	2.29411769
1080.12707520	2.19607854
1080.13098145	2.33333325
1080.13500977	2.56862736
1080.13500977	2.66666675
1080.13916016	2.82352948
1080.14343262	2.98039222
1080.14758301	2.84313726
1080.14758301	2.88235283
1080.15148926	3.21568632
1080.15576172	3.27450991
1080.15966797	3.17647052
1080.16394043	2.88235283
1080.16394043	2.88235283
1080.16784668	3.21568632
1080.17187500	3.33333325
1080.17602539	3.07843137
1080.17602539	2.78431368
1080.18041992	2.76470590
1080.18432617	2.72549009
1080.18835449	2.80392146
1080.19250488	2.70588231
1080.19250488	2.74509811
1080.19665527	2.74509811
1080.20068359	2.49019599
1080.20483398	2.54901958
1080.20483398	2.50980401
1080.20874023	2.29411769
1080.21325684	2.29411769
1080.21728516	2.62745094
1080.22119141	2.70588231
1080.22119141	2.27450991
1080.22534180	2.03921580
1080.22949219	2.15686274
1080.23352051	1.88235295
1080.23352051	1.88235295
1080.23767090	1.84313726
1080.24182129	1.82352936
1080.24584961	1.82352936
1080.24987793	1.88235295
1080.25402832	1.68627453
1080.25793457	1.80392158
1080.26208496	1.72549021
1080.26208496	1.84313726
1080.26623535	1.82352936
1080.27038574	1.80392158
1080.27441406	1.88235295
1080.27844238	1.60784316
1080.28308105	1.64705884
1080.28686523	1.50980389
1080.29089355	1.49019611
1080.29089355	1.47058821
1080.29479980	1.27450979
1080.29895020	1.35294116
1080.30322266	1.39215684
1080.30725098	1.78431368
1080.31115723	1.78431368
1080.31542969	1.50980389
1080.31945801	1.50980389
1080.31945801	1.49019611
1080.32360840	1.56862748
1080.32775879	1.41176474
1080.33178711	1.47058821
1080.33581543	1.88235295
1080.34008789	2.11764717
1080.34436035	1.88235295
1080.34814453	1.60784316
1080.34814453	1.23529410
1080.35229492	1.03921568
1080.35632324	0.90196079
1080.36059570	0.88235295
1080.36059570	1.23529410
1080.36450195	2.01960778
1080.36865234	2.96078420
1080.37268066	3.84313726
1080.37695313	4.88235283
1080.37695313	4.98039198
1080.38098145	4.98039198
1080.38500977	4.98039198
1080.38903809	4.92156839
1080.38903809	4.84313726
1080.39331055	4.27450991
1080.39733887	3.47058821
1080.40136719	2.52941179
1080.40551758	1.88235295
1080.40551758	1.54901958
1080.40954590	1.45098042
1080.41381836	1.52941179
1080.41784668	1.58823526
1080.41784668	1.70588231
1080.42187500	1.78431368
1080.42590332	1.76470590
1080.43041992	1.86274505
1080.43420410	1.96078432
1080.43420410	2.29411769
1080.43823242	2.11764717
1080.44238281	1.90196073
1080.44665527	2.03921580
1080.44665527	1.86274505
1080.45068359	1.82352936
1080.45483398	1.84313726
1080.45874023	1.80392158
1080.46313477	1.90196073
1080.46313477	2.03921580
1080.46716309	2.25490189
1080.47119141	2.05882359
1080.47534180	1.96078432
1080.47534180	2.01960778
1080.47985840	2.09803915
1080.48339844	2.19607854
1080.48730469	2.41176462
1080.49145508	2.45098042
1080.49145508	2.54901958
1080.49584961	2.62745094
1080.49963379	2.49019599
1080.50390625	2.50980401
1080.50390625	2.56862736
1080.50793457	2.62745094
1080.51196289	2.68627453
1080.51611328	2.76470590
1080.52026367	2.82352948
1080.52026367	2.86274505
1080.52429199	2.88235283
1080.52832031	3.07843137
1080.53247070	3.15686274
1080.53247070	3.15686274
1080.53662109	2.94117641
1080.54064941	3.01960778
1080.54479980	3.09803915
1080.54882813	3.01960778
1080.54882813	2.96078420
1080.55297852	3.23529410
1080.55712891	3.35294127
1080.56115723	3.09803915
1080.56115723	2.90196085
1080.56518555	2.58823538
1080.56933594	2.27450991
1080.57348633	2.19607854
1080.57775879	2.23529410
1080.57775879	2.09803915
1080.58190918	2.09803915
1080.58581543	2.15686274
1080.58984375	2.01960778
1080.58984375	2.00000000
1080.59399414	2.15686274
1080.59814453	2.09803915
1080.60217285	1.98039210
1080.60620117	1.98039210
1080.61035156	1.86274505
1080.61450195	1.72549021
1080.61853027	1.86274505
1080.61853027	1.96078432
1080.62255859	2.07843137
1080.62670898	2.05882359
1080.63085938	2.13725495
1080.63488770	1.80392158
1080.63891602	1.70588231
1080.64306641	1.76470590
1080.64733887	1.72549021
1080.64733887	1.68627453
1080.65124512	1.58823526
1080.65527344	1.39215684
1080.65966797	1.41176474
1080.66381836	1.11764705
1080.66772461	1.17647064
1080.67175293	1.29411769
1080.67578125	1.39215684
1080.67578125	1.39215684
1080.68017578	1.37254906
1080.68408203	1.45098042
1080.68811035	1.56862748
1080.69226074	1.45098042
1080.69665527	1.52941179
1080.70056152	1.50980389
1080.70458984	1.45098042
1080.70458984	1.31372547
1080.70861816	1.00000000
1080.71289063	0.82352942
1080.71679688	0.43137255
1080.72094727	0.33333334
1080.72497559	0.98039216
1080.72924805	1.92156863
1080.73327637	3.13725495
1080.73327637	4.25490189
1080.73730469	4.98039198
1080.74145508	4.98039198
1080.74560547	4.98039198
1080.74963379	4.98039198
1080.75366211	4.50980377
1080.75781250	4.21568632
1080.76196289	3.21568632
1080.76196289	2.21568632
1080.76599121	1.78431368
1080.77014160	1.70588231
1080.77429199	1.70588231
1080.77429199	1.68627453
1080.77819824	1.54901958
1080.78234863	1.50980389
1080.78662109	1.60784316
1080.79064941	1.64705884
1080.79064941	1.74509799
1080.79479980	1.88235295
1080.79882813	2.01960778
