708.98205566	4.35294104
708.98608398	3.98039222
708.99041748	3.66666675
708.99432373	3.74509811
708.99847412	3.76470590
709.00250244	3.47058821
709.00250244	3.33333325
709.00646973	3.52941179
709.01062012	3.82352948
709.01470947	3.58823538
709.01892090	3.62745094
709.02288818	3.68627453
709.02697754	3.88235283
709.03112793	3.92156863
709.03112793	3.72549009
709.03521729	3.68627453
709.03918457	3.60784316
709.04345703	3.54901958
709.04345703	3.62745094
709.04760742	3.43137264
709.05163574	3.23529410
709.05584717	2.68627453
709.05969238	2.11764717
709.05969238	1.78431368
709.06390381	1.82352936
709.06799316	2.27450991
709.07214355	3.49019599
709.07214355	4.90196085
709.07604980	4.98039198
709.08020020	4.98039198
709.08435059	4.98039198
709.08843994	4.98039198
709.08843994	4.98039198
709.09252930	4.98039198
709.09674072	4.98039198
709.10083008	4.98039198
709.10083008	4.86274529
709.10485840	4.25490189
709.10882568	3.33333325
709.11322021	2.70588231
709.11730957	2.45098042
709.11730957	2.43137264
709.12158203	2.60784316
709.12542725	2.78431368
709.12951660	3.01960778
709.12951660	3.03921580
709.13348389	3.37254906
709.13775635	3.37254906
709.14172363	3.35294127
709.14581299	3.17647052
709.14581299	3.17647052
709.15014648	3.25490189
709.15399170	3.29411769
709.15814209	3.15686274
709.15814209	3.33333325
709.16241455	3.90196085
709.16619873	4.23529434
709.17034912	4.01960802
709.17449951	3.72549009
709.17449951	3.72549009
709.17901611	3.78431368
709.18298340	3.84313726
709.18701172	3.86274505
709.18701172	3.82352948
709.19110107	3.98039222
709.19506836	4.27450991
709.19903564	4.39215708
709.20312500	4.50980377
709.20312500	4.98039198
709.20721436	4.90196085
709.21136475	4.70588255
709.21545410	4.92156839
709.21545410	4.76470566
709.21954346	4.94117641
709.22369385	4.98039198
709.22772217	4.98039198
709.23193359	4.94117641
709.23193359	4.62745094
709.23583984	4.50980377
709.23999023	4.84313726
709.24407959	4.98039198
709.24407959	4.96078444
709.24822998	4.94117641
709.25238037	4.98039198
709.25640869	4.94117641
709.26043701	4.74509811
709.26043701	4.98039198
709.26458740	4.86274529
709.26879883	4.82352924
709.27294922	4.66666651
709.27294922	4.50980377
709.27685547	4.64705896
709.28100586	4.58823538
709.28515625	4.52941179
709.28942871	4.49019623
709.29321289	4.64705896
709.29736328	4.41176462
709.30151367	4.35294104
709.30151367	4.43137264
709.30560303	3.92156863
709.30975342	3.72549009
709.31378174	4.05882359
709.31787109	4.98039198
709.32202148	4.64705896
709.32611084	4.13725471
709.33026123	3.00000000
709.33026123	2.21568632
709.33422852	2.35294127
709.33837891	2.66666675
709.34246826	2.66666675
709.34655762	2.64705873
709.35070801	2.54901958
709.35479736	2.88235283
709.35900879	3.19607854
709.35900879	3.05882359
709.36334229	3.03921580
709.36706543	3.07843137
709.37109375	3.13725495
709.37518311	3.41176462
709.37963867	2.98039222
709.38354492	2.76470590
709.38769531	2.88235283
709.38769531	2.88235283
709.39184570	3.01960778
709.39581299	3.35294127
709.40014648	3.39215684
709.40405273	3.03921580
709.40808105	2.84313726
709.41229248	2.92156863
709.41644287	2.88235283
709.41644287	1.76470590
709.42047119	1.19607842
709.42456055	1.39215684
709.42858887	2.09803915
709.42858887	2.92156863
709.43267822	4.01960802
709.43695068	4.98039198
709.44085693	4.98039198
709.44488525	4.98039198
709.44488525	4.98039198
709.44885254	4.98039198
709.45294189	4.96078444
709.45715332	4.88235283
709.45715332	4.43137264
709.46124268	4.01960802
709.46533203	3.39215684
709.46942139	2.78431368
709.47351074	1.96078432
709.47351074	1.54901958
709.47760010	1.76470590
709.48168945	1.60784316
709.48596191	1.50980389
709.48596191	1.76470590
709.48986816	1.80392158
709.49401855	1.94117641
709.49810791	2.17647052
709.50231934	2.90196085
709.50231934	3.00000000
709.50628662	2.74509811
709.51037598	2.84313726
709.51458740	2.52941179
709.51458740	2.31372547
709.51861572	2.23529410
709.52282715	2.21568632
709.52673340	2.35294127
709.53094482	2.60784316
709.53094482	2.98039222
709.53503418	2.92156863
709.53918457	2.96078420
709.54309082	2.92156863
709.54309082	3.03921580
709.54718018	3.01960778
709.55133057	3.17647052
709.55541992	3.64705873
709.55950928	3.94117641
709.55950928	4.27450991
709.56365967	4.27450991
709.56787109	4.56862736
709.57208252	4.68627453
709.57208252	4.27450991
709.57623291	4.09803915
709.58013916	4.07843161
709.58416748	4.66666651
709.58825684	4.56862736
709.58825684	4.35294104
709.59246826	4.19607830
709.59655762	4.47058821
709.60070801	4.62745094
709.60070801	4.70588255
709.60479736	4.72549009
709.60894775	4.56862736
709.61291504	4.58823538
709.61712646	4.50980377
709.61712646	4.70588255
709.62121582	4.90196085
709.62530518	4.62745094
709.62927246	4.56862736
709.62927246	4.54901981
709.63330078	4.47058821
709.63732910	4.33333349
709.64147949	4.31372547
709.64569092	3.98039222
709.64569092	4.11764717
709.64978027	4.21568632
709.65374756	4.29411745
709.65795898	4.27450991
709.65795898	4.05882359
709.66217041	4.17647076
709.66595459	3.98039222
709.67010498	3.90196085
709.67425537	3.72549009
709.67840576	3.86274505
709.68237305	4.11764717
709.68646240	4.21568632
709.68646240	4.27450991
709.69085693	4.05882359
709.69494629	3.92156863
709.69909668	4.00000000
709.70294189	4.01960802
709.70703125	3.47058821
709.71112061	3.23529410
709.71520996	3.00000000
709.71520996	2.94117641
709.71923828	3.03921580
709.72332764	3.00000000
709.72747803	3.01960778
709.73181152	3.19607854
709.73571777	3.45098042
709.73974609	3.41176462
709.74383545	3.35294127
709.74383545	3.64705873
709.74798584	3.45098042
709.75207520	3.27450991
709.75610352	3.31372547
709.76025391	3.82352948
709.76458740	3.66666675
709.76867676	3.27450991
709.77264404	2.88235283
709.77264404	2.39215684
709.77679443	2.03921580
709.78100586	1.98039210
709.78497314	2.01960778
709.78881836	3.27450991
709.79296875	3.72549009
709.79711914	4.54901981
709.80120850	4.98039198
709.80120850	4.98039198
709.80535889	4.98039198
709.80938721	4.98039198
709.81353760	4.98039198
709.81762695	4.47058821
709.82177734	3.90196085
709.82574463	3.39215684
709.82989502	2.62745094
709.82989502	2.27450991
709.83398438	2.03921580
709.83831787	2.00000000
709.84234619	1.82352936
709.84234619	1.90196073
709.84649658	2.17647052
709.85058594	2.37254906
709.85467529	2.41176462
709.85876465	2.62745094
709.85876465	2.62745094
709.86297607	2.92156863
709.86700439	2.98039222
709.87109375	2.82352948
709.87109375	2.68627453
709.87518311	2.80392146
709.87921143	2.70588231
709.88336182	2.74509811
709.88726807	2.78431368
709.88726807	3.21568632
709.89141846	3.43137264
709.89544678	3.43137264
709.89947510	3.35294127
709.89947510	3.45098042
709.90399170	3.54901958
709.90808105	3.49019599
709.91241455	3.50980401
709.91619873	3.96078420
709.91619873	3.64705873
709.92028809	3.60784316
709.92456055	3.56862736
709.92864990	3.62745094
709.92864990	3.43137264
709.93322754	3.78431368
709.93670654	4.09803915
709.94085693	4.01960802
709.94512939	3.92156863
709.94512939	4.03921556
709.94915771	4.52941179
709.95312500	4.27450991
709.95751953	4.35294104
709.95751953	4.07843161
709.96130371	4.07843161
709.96557617	4.21568632
709.96923828	4.33333349
709.97338867	4.43137264
709.97338867	4.49019623
709.97747803	4.31372547
709.98168945	4.47058821
709.98577881	3.80392146
709.98577881	4.25490189
709.98986816	3.86274505
709.99389648	3.72549009
709.99792480	3.80392146
710.00201416	3.80392146
710.00201416	3.68627453
710.00598145	3.84313726
710.01025391	4.37254906
710.01446533	4.05882359
710.01446533	4.13725471
710.01849365	3.90196085
710.02239990	3.68627453
710.02661133	3.76470590
710.03063965	3.80392146
710.03063965	4.05882359
710.03472900	4.19607830
710.03875732	3.78431368
710.04290771	3.88235283
710.04290771	4.09803915
710.04699707	4.37254906
710.05114746	3.03921580
710.05541992	3.00000000
710.05944824	3.23529410
710.06359863	2.88235283
710.06768799	3.11764717
710.07177734	3.13725495
710.07177734	3.23529410
710.07580566	3.19607854
710.07989502	3.31372547
710.08404541	3.11764717
710.08813477	3.72549009
710.09246826	3.43137264
710.09637451	3.64705873
710.10028076	3.72549009
710.10028076	3.47058821
710.10443115	2.88235283
710.10852051	2.37254906
710.11254883	2.35294127
710.11694336	3.09803915
710.12084961	3.43137264
710.12500000	3.72549009
710.12908936	4.03921556
710.12908936	3.19607854
710.13305664	2.39215684
710.13720703	2.29411769
710.14135742	2.31372547
710.14544678	2.41176462
710.14965820	3.15686274
710.15350342	4.21568632
710.15783691	4.98039198
710.15783691	4.98039198
710.16198730	4.98039198
710.16583252	4.98039198
710.16992188	4.98039198
710.17413330	4.98039198
710.17816162	4.78431368
710.18243408	4.17647076
710.18646240	3.70588231
710.18646240	3.74509811
710.19049072	3.25490189
710.19464111	2.58823538
710.19866943	2.23529410
710.20275879	1.94117641
710.20690918	2.13725495
710.21087646	2.33333325
710.21502686	2.74509811
710.21502686	2.78431368
710.21917725	2.92156863
710.22326660	3.07843137
710.22735596	3.52941179
710.22735596	3.58823538
710.23138428	3.35294127
710.23547363	3.60784316
710.23962402	3.58823538
710.24377441	3.43137264
710.24377441	3.50980401
710.24786377	3.52941179
710.25189209	3.27450991
710.25585938	3.25490189
710.25585938	3.39215684
710.26000977	3.25490189
710.26434326	3.21568632
710.26831055	3.29411769
710.27246094	3.64705873
710.27246094	3.74509811
710.27661133	3.50980401
710.28063965	3.35294127
710.28466797	2.98039222
710.28466797	3.33333325
710.28887939	3.66666675
710.29278564	3.66666675
710.29693604	3.39215684
710.30126953	3.41176462
710.30126953	3.60784316
710.30517578	3.82352948
710.30920410	3.94117641
710.31329346	3.94117641
710.31329346	3.70588231
710.31738281	3.76470590
710.32153320	3.82352948
710.32556152	3.86274505
710.32977295	3.80392146
710.32977295	3.37254906
710.33380127	3.58823538
710.33795166	3.50980401
710.34204102	3.31372547
710.34204102	3.25490189
710.34613037	2.96078420
710.35015869	2.90196085
710.35430908	3.11764717
710.35839844	3.03921580
710.35839844	3.09803915
710.36254883	3.33333325
710.36663818	3.19607854
710.37066650	3.17647052
710.37066650	3.39215684
710.37487793	3.50980401
710.37890625	3.66666675
710.38305664	2.92156863
710.38714600	2.70588231
710.38714600	2.94117641
710.39135742	3.09803915
710.39556885	2.84313726
710.39929199	2.68627453
710.39929199	2.56862736
710.40338135	2.66666675
710.40765381	2.68627453
710.41198730	2.74509811
710.41589355	2.60784316
710.41589355	2.52941179
710.41992188	2.43137264
710.42382813	2.47058821
710.42803955	2.23529410
710.42803955	2.25490189
710.43194580	2.52941179
710.43615723	2.56862736
710.44030762	2.72549009
710.44433594	2.31372547
710.44866943	2.45098042
710.45257568	2.43137264
710.45672607	2.39215684
710.45672607	2.39215684
710.46075439	2.50980401
710.46490479	2.45098042
710.46887207	2.33333325
710.47308350	2.78431368
710.47723389	2.84313726
710.48126221	2.66666675
710.48541260	2.56862736
710.48541260	2.39215684
710.48950195	2.25490189
710.49353027	2.07843137
710.49774170	1.84313726
710.50183105	1.13725495
710.50585938	1.52941179
710.51000977	2.31372547
710.51397705	3.41176462
710.51397705	4.31372547
710.51806641	4.98039198
710.52239990	4.98039198
710.52630615	4.98039198
710.53033447	4.96078444
710.53521729	4.64705896
710.53869629	4.35294104
710.54278564	3.90196085
710.54278564	3.15686274
710.54693604	2.41176462
710.55084229	2.07843137
710.55493164	2.03921580
710.55895996	1.80392158
710.56311035	1.88235295
710.56719971	2.00000000
710.57141113	2.07843137
710.57141113	2.17647052
710.57531738	2.41176462
710.57958984	2.60784316
710.58367920	2.43137264
710.58770752	2.45098042
710.59185791	2.60784316
710.59594727	2.66666675
710.60003662	2.74509811
710.60003662	2.70588231
710.60412598	2.96078420
710.60821533	2.94117641
710.61260986	3.01960778
710.61260986	2.98039222
710.61639404	3.17647052
710.62048340	3.03921580
710.62457275	3.03921580
710.62890625	3.07843137
710.62890625	3.00000000
710.63281250	2.80392146
710.63684082	2.72549009
710.64099121	2.74509811
710.64099121	2.80392146
710.64514160	2.88235283
710.64910889	2.94117641
710.65319824	2.92156863
710.65728760	2.82352948
710.65728760	2.90196085
710.66149902	2.90196085
710.66552734	2.82352948
710.66973877	2.80392146
710.66973877	2.76470590
710.67370605	2.80392146
710.67785645	2.92156863
710.68200684	2.90196085
710.68597412	3.03921580
710.68597412	3.23529410
710.69012451	3.17647052
710.69439697	2.98039222
710.69836426	3.07843137
710.69836426	2.98039222
710.70239258	2.64705873
710.70642090	2.68627453
710.71057129	2.64705873
710.71478271	2.94117641
710.71478271	2.90196085
710.71868896	2.76470590
710.72283936	2.37254906
710.72705078	2.23529410
710.72705078	2.33333325
710.73107910	2.35294127
710.73522949	2.39215684
710.73937988	2.31372547
710.74334717	2.19607854
710.74334717	2.19607854
710.74743652	2.31372547
710.75158691	2.27450991
710.75573730	2.11764717
710.75573730	2.21568632
710.75970459	2.33333325
710.76403809	2.25490189
710.76818848	2.05882359
710.77209473	2.00000000
710.77209473	1.98039210
710.77612305	1.84313726
710.78039551	1.72549021
710.78436279	1.70588231
710.78436279	1.74509799
710.78851318	1.52941179
710.79260254	1.29411769
710.79669189	1.17647064
710.80072021	1.37254906
710.80072021	1.35294116
710.80487061	1.17647064
710.80883789	1.25490201
710.81311035	1.29411769
710.81311035	1.13725495
710.81713867	1.23529410
710.82122803	1.33333337
710.82525635	1.15686274
710.82958984	1.09803927
710.82958984	1.29411769
710.83355713	1.35294116
710.83758545	1.37254906
710.84179688	1.27450979
710.84179688	1.07843137
710.84576416	0.94117647
710.84991455	0.60784316
710.85406494	0.29411766
710.85809326	0.01960784
710.86224365	0.29411766
710.86633301	1.00000000
710.87036133	1.98039210
710.87036133	2.90196085
710.87445068	4.13725471
710.87884521	4.98039198
710.88275146	4.98039198
710.88671875	4.98039198
710.89080811	4.94117641
710.89508057	4.68627453
710.89916992	4.15686274
710.89916992	3.27450991
710.90313721	2.21568632
710.90734863	1.33333337
710.91137695	0.88235295
710.91540527	0.78431374
710.91955566	0.86274511
710.92358398	0.84313726
710.92773438	0.49019608
710.92773438	0.56862748
710.93182373	0.52941179
710.93585205	0.56862748
710.94000244	0.84313726
710.94409180	0.78431374
710.94824219	0.82352942
710.95220947	0.84313726
710.95635986	0.92156863
710.95635986	0.98039216
710.96075439	1.01960790
710.96484375	1.11764705
710.96875000	1.35294116
710.97271729	1.84313726
710.97680664	2.00000000
710.98095703	2.03921580
710.98510742	1.76470590
710.98510742	1.94117641
710.98913574	1.98039210
710.99322510	1.88235295
710.99737549	1.74509799
710.99737549	1.86274505
711.00146484	1.94117641
711.00543213	2.13725495
711.00976563	2.33333325
711.01373291	2.37254906
711.01373291	2.45098042
711.01782227	2.62745094
711.02185059	2.56862736
711.02606201	2.68627453
711.02606201	2.74509811
711.03009033	2.78431368
711.03430176	2.82352948
711.03839111	3.05882359
711.04235840	3.31372547
711.04235840	3.37254906
711.04663086	3.13725495
711.05065918	3.07843137
711.05468750	2.92156863
711.05468750	3.00000000
711.05877686	3.15686274
711.06292725	3.25490189
711.06701660	3.33333325
711.07110596	3.35294127
711.07110596	3.41176462
711.07531738	3.35294127
711.07952881	3.43137264
711.08331299	3.47058821
711.08331299	3.29411769
711.08752441	3.31372547
711.09161377	3.31372547
711.09613037	3.39215684
711.09973145	3.33333325
711.09973145	2.96078420
711.10388184	2.82352948
711.10803223	2.88235283
711.11224365	3.01960778
711.11224365	2.96078420
711.11614990	2.94117641
711.12023926	2.94117641
711.12438965	2.94117641
711.12878418	3.05882359
711.12878418	2.84313726
711.13244629	2.60784316
711.13659668	2.54901958
711.14093018	2.56862736
711.14093018	2.52941179
711.14489746	2.29411769
711.14898682	2.27450991
711.15325928	2.09803915
711.15710449	2.15686274
711.15710449	2.07843137
711.16125488	2.07843137
711.16522217	2.03921580
711.16931152	2.09803915
711.16931152	2.07843137
711.17352295	2.09803915
711.17761230	2.13725495
711.18170166	2.21568632
711.18572998	2.19607854
711.18572998	2.09803915
711.18981934	2.29411769
711.19396973	2.49019599
711.19818115	2.31372547
711.19818115	2.15686274
711.20214844	1.88235295
711.20623779	1.58823526
711.21032715	1.27450979
711.21472168	0.39215687
711.21850586	0.45098040
711.22283936	0.86274511
711.22668457	1.68627453
711.22668457	2.98039222
711.23089600	4.52941179
711.23498535	4.98039198
711.23901367	4.98039198
711.24310303	4.98039198
711.24725342	4.98039198
711.25134277	4.98039198
711.25543213	4.98039198
711.25543213	4.78431368
711.25946045	3.78431368
711.26354980	2.64705873
711.26806641	1.88235295
711.27178955	1.21568632
711.27600098	1.41176474
711.28002930	1.49019611
711.28411865	1.33333337
711.28411865	1.17647064
711.28820801	1.29411769
711.29217529	1.15686274
711.29650879	1.21568632
711.30053711	1.62745094
711.30456543	1.62745094
711.30877686	1.92156863
711.31286621	1.84313726
711.31286621	1.80392158
711.31683350	1.76470590
711.32098389	1.90196073
711.32513428	1.86274505
711.32946777	2.05882359
711.33325195	2.13725495
711.33758545	2.29411769
711.34173584	2.47058821
711.34173584	2.72549009
711.34558105	2.90196085
711.34979248	2.94117641
711.35375977	2.80392146
711.35375977	3.00000000
711.35791016	3.09803915
711.36206055	3.15686274
711.36608887	3.29411769
711.37017822	3.37254906
711.37017822	3.45098042
711.37420654	3.58823538
711.37847900	3.58823538
711.38244629	3.64705873
711.38244629	3.52941179
711.38647461	3.60784316
711.39062500	3.82352948
711.39489746	3.92156863
711.39886475	3.92156863
711.39886475	3.90196085
711.40283203	3.96078420
711.40698242	3.96078420
711.41113281	4.09803915
711.41113281	4.00000000
711.41510010	4.00000000
711.41925049	4.05882359
711.42340088	3.96078420
711.42749023	3.92156863
711.42749023	4.00000000
711.43164063	4.05882359
711.43566895	4.07843161
711.43975830	4.09803915
711.43975830	4.09803915
711.44403076	4.00000000
711.44799805	4.03921556
711.45190430	3.98039222
711.45611572	3.80392146
711.45611572	3.94117641
711.46026611	3.94117641
711.46441650	3.72549009
711.46850586	3.60784316
711.46850586	3.52941179
711.47265625	3.43137264
711.47662354	3.43137264
711.48077393	3.62745094
711.48486328	3.82352948
711.48486328	3.47058821
711.48889160	3.21568632
711.49304199	2.98039222
711.49719238	2.94117641
711.49719238	2.94117641
711.50128174	2.68627453
711.50524902	2.74509811
711.50933838	2.68627453
711.51348877	2.72549009
711.51348877	2.64705873
711.51763916	2.56862736
711.52172852	2.60784316
711.52569580	2.52941179
711.52569580	2.37254906
711.53002930	2.43137264
711.53424072	2.45098042
711.53814697	2.52941179
711.54211426	2.74509811
711.54211426	2.64705873
711.54644775	2.54901958
711.55047607	2.58823538
711.55450439	2.54901958
711.55450439	2.60784316
711.55847168	2.66666675
711.56274414	2.47058821
711.56683350	2.25490189
711.57080078	1.50980389
711.57482910	1.15686274
711.57904053	1.17647064
711.58319092	1.74509799
711.58319092	2.23529410
711.58728027	3.13725495
711.59161377	4.23529434
711.59558105	4.98039198
711.59954834	4.98039198
711.60363770	4.98039198
711.60772705	4.98039198
711.61206055	4.96078444
711.61206055	4.72549009
711.61584473	4.31372547
711.61993408	3.54901958
711.62408447	2.66666675
711.62854004	1.86274505
711.63226318	1.84313726
711.63635254	2.03921580
711.64044189	2.21568632
711.64044189	2.11764717
711.64459229	2.09803915
711.64874268	2.15686274
711.65270996	2.25490189
711.65710449	2.35294127
711.66094971	2.41176462
711.66497803	2.47058821
711.66912842	2.52941179
711.66912842	2.49019599
711.67321777	2.56862736
711.67736816	2.62745094
711.68151855	2.68627453
711.68548584	2.78431368
711.68975830	3.11764717
711.69372559	2.92156863
711.69793701	2.82352948
711.69793701	2.84313726
711.70184326	2.92156863
711.70605469	3.01960778
711.71014404	3.09803915
711.71014404	2.98039222
711.71423340	3.05882359
711.71838379	3.37254906
711.72253418	3.52941179
711.72656250	3.64705873
711.72656250	3.56862736
711.73065186	3.56862736
711.73468018	3.43137264
711.73870850	3.37254906
711.73870850	3.41176462
711.74285889	3.49019599
711.74707031	3.50980401
711.75109863	3.70588231
711.75524902	3.70588231
711.75524902	3.70588231
711.75927734	3.86274505
711.76336670	3.82352948
711.76745605	3.74509811
711.76745605	3.82352948
711.77160645	3.94117641
711.77569580	3.76470590
711.77978516	3.56862736
711.78405762	3.41176462
711.78405762	3.31372547
711.78802490	3.25490189
711.79199219	3.33333325
711.79638672	3.29411769
711.79638672	3.39215684
711.80029297	3.45098042
711.80438232	3.33333325
711.80834961	3.45098042
711.81256104	3.56862736
711.81256104	3.33333325
711.81671143	3.13725495
711.82067871	3.09803915
711.82482910	2.92156863
711.82482910	2.84313726
711.82897949	3.01960778
711.83312988	2.92156863
711.83709717	2.90196085
711.84149170	3.00000000
711.84149170	2.76470590
711.84539795	2.62745094
711.84960938	2.58823538
711.85369873	2.37254906
711.85369873	2.33333325
711.85791016	2.29411769
711.86181641	2.15686274
711.86578369	1.98039210
711.86987305	1.92156863
711.86987305	2.13725495
711.87402344	2.27450991
711.87817383	2.25490189
711.88208008	2.03921580
711.88208008	1.80392158
711.88623047	1.56862748
711.89038086	1.72549021
711.89453125	1.72549021
711.89862061	1.78431368
711.89862061	1.88235295
711.90270996	1.92156863
711.90673828	2.00000000
711.91082764	1.96078432
711.91082764	1.92156863
711.91491699	2.07843137
711.91894531	2.11764717
711.92309570	2.00000000
711.92718506	1.74509799
711.92718506	1.54901958
711.93133545	1.23529410
711.93530273	0.94117647
711.93945313	0.68627453
711.93945313	0.64705884
711.94354248	1.05882359
711.94781494	1.84313726
711.95172119	2.96078420
711.95581055	4.88235283
711.96002197	4.98039198
711.96453857	4.98039198
711.96826172	4.98039198
711.96826172	4.88235283
711.97222900	4.31372547
711.97644043	3.82352948
711.98052979	3.33333325
711.98455811	1.47058821
711.98870850	1.19607842
711.99267578	0.94117647
711.99694824	0.90196079
711.99694824	1.03921568
712.00097656	1.01960790
712.00494385	1.27450979
712.00903320	1.33333337
712.01330566	1.41176474
712.01733398	1.54901958
712.02148438	1.60784316
712.02545166	1.68627453
712.02545166	1.78431368
712.02966309	1.82352936
712.03369141	1.82352936
712.03784180	1.92156863
712.04211426	1.96078432
712.04614258	2.07843137
712.05010986	2.23529410
712.05426025	2.21568632
712.05426025	2.47058821
712.05816650	2.50980401
712.06243896	2.49019599
712.06652832	2.35294127
712.07067871	2.60784316
712.07476807	2.68627453
712.07885742	2.96078420
712.08282471	3.09803915
712.08282471	2.86274505
712.08697510	2.94117641
712.09112549	2.84313726
712.09564209	2.96078420
712.09564209	3.13725495
712.09948730	3.21568632
712.10357666	3.37254906
712.10754395	3.19607854
712.11169434	3.09803915
712.11169434	3.11764717
712.11578369	3.23529410
712.11968994	3.41176462
712.12384033	3.49019599
712.12384033	3.45098042
712.12799072	3.50980401
712.13201904	3.35294127
712.13616943	3.25490189
712.14031982	3.27450991
712.14031982	3.29411769
712.14440918	3.23529410
712.14837646	3.15686274
712.15252686	3.21568632
712.15252686	3.21568632
712.15673828	3.23529410
712.16070557	3.23529410
712.16491699	3.17647052
712.16888428	3.27450991
712.16888428	3.39215684
712.17303467	3.56862736
712.17712402	3.76470590
712.18127441	3.27450991
712.18127441	2.70588231
712.18518066	2.62745094
712.18933105	2.76470590
712.19348145	2.70588231
712.19757080	2.80392146
712.19757080	2.92156863
712.20172119	2.90196085
712.20599365	2.70588231
712.20989990	2.76470590
712.20989990	2.64705873
712.21398926	2.64705873
712.21795654	2.54901958
712.22229004	2.45098042
712.22650146	2.31372547
712.22650146	2.25490189
712.23034668	2.25490189
712.23449707	2.17647052
712.23852539	2.19607854
712.23852539	2.21568632
712.24273682	2.23529410
712.24688721	2.29411769
712.25091553	2.35294127
712.25494385	2.29411769
712.25494385	2.25490189
712.25891113	2.27450991
712.26312256	2.21568632
712.26721191	2.27450991
712.26721191	2.33333325
712.27136230	2.29411769
712.27532959	2.33333325
712.27954102	2.25490189
712.28369141	2.17647052
712.28369141	2.09803915
712.28778076	2.00000000
712.29205322	1.72549021
712.29614258	1.41176474
712.29614258	1.03921568
712.29998779	0.84313726
712.30407715	0.86274511
712.30804443	1.37254906
712.31231689	2.27450991
712.31231689	3.47058821
712.31640625	4.74509811
712.32043457	4.98039198
712.32470703	4.98039198
712.32470703	4.98039198
712.32891846	4.98039198
712.33270264	4.98039198
712.33685303	4.98039198
712.34100342	4.45098019
712.34521484	3.37254906
712.34924316	2.49019599
712.35327148	1.80392158
712.35327148	1.54901958
712.35748291	1.49019611
712.36145020	1.62745094
712.36553955	1.72549021
712.36981201	1.70588231
712.37371826	1.72549021
712.37786865	1.68627453
712.38189697	1.68627453
712.38189697	1.82352936
712.38592529	1.88235295
712.39013672	1.92156863
712.39422607	1.90196073
712.39825439	2.00000000
712.40234375	2.00000000
712.40649414	2.09803915
712.41058350	2.27450991
712.41058350	2.35294127
712.41473389	2.37254906
712.41876221	2.47058821
712.42297363	2.47058821
712.42706299	2.82352948
712.43115234	2.98039222
712.43505859	2.84313726
712.43920898	2.78431368
712.43920898	2.74509811
712.44335938	2.80392146
712.44763184	3.00000000
712.45159912	3.17647052
712.45159912	3.13725495
712.45568848	3.11764717
712.45971680	3.17647052
712.46380615	3.11764717
712.46801758	3.11764717
712.46801758	3.29411769
712.47198486	3.21568632
712.47613525	3.33333325
712.48022461	3.35294127
712.48022461	3.50980401
712.48455811	3.64705873
712.48840332	3.66666675
712.49249268	3.60784316
712.49670410	3.58823538
712.49670410	3.58823538
712.50073242	3.58823538
712.50476074	3.60784316
712.50885010	3.58823538
712.50885010	3.72549009
712.51312256	3.70588231
712.51715088	3.74509811
712.52124023	3.64705873
712.52520752	3.66666675
712.52520752	3.72549009
712.52954102	3.86274505
712.53350830	3.86274505
712.53765869	3.92156863
712.53765869	3.76470590
712.54168701	3.54901958
712.54602051	3.25490189
712.54986572	3.19607854
712.55401611	3.13725495
712.55401611	3.19607854
712.55810547	3.23529410
712.56225586	3.27450991
712.56628418	3.23529410
712.56628418	3.25490189
712.57037354	3.17647052
712.57446289	3.09803915
712.57873535	3.01960778
712.58282471	2.92156863
712.58282471	2.70588231
712.58666992	2.52941179
712.59088135	2.54901958
712.59515381	2.49019599
712.59515381	2.54901958
712.59899902	2.47058821
712.60314941	2.39215684
712.60742188	2.37254906
712.61138916	2.37254906
712.61138916	2.31372547
712.61547852	2.47058821
712.61950684	2.35294127
712.62353516	2.45098042
712.62353516	2.49019599
712.62774658	2.35294127
712.63177490	2.31372547
712.63580322	2.33333325
712.64001465	2.31372547
712.64001465	2.37254906
712.64416504	2.43137264
712.64819336	2.19607854
712.65222168	1.98039210
712.65222168	1.45098042
712.65631104	0.84313726
712.66046143	0.49019608
712.66467285	0.47058824
712.66900635	0.84313726
712.66900635	1.72549021
712.67297363	2.98039222
712.67694092	4.43137264
712.68109131	4.98039198
712.68109131	4.98039198
712.68493652	4.98039198
712.68908691	4.98039198
712.69323730	4.98039198
712.69738770	4.98039198
712.70135498	4.74509811
712.70550537	3.76470590
712.70971680	2.64705873
712.70971680	1.80392158
712.71380615	1.47058821
712.71789551	1.35294116
712.72186279	1.41176474
712.72595215	1.31372547
712.73010254	1.37254906
712.73449707	1.39215684
712.73834229	1.37254906
712.73834229	1.27450979
712.74237061	1.25490201
712.74658203	1.39215684
712.75061035	1.41176474
712.75476074	1.60784316
712.75872803	1.78431368
712.76287842	1.90196073
712.76702881	1.98039210
712.76702881	2.03921580
712.77111816	2.11764717
712.77532959	2.17647052
712.77972412	2.23529410
712.78338623	2.41176462
712.78747559	2.52941179
712.79150391	2.52941179
712.79595947	2.68627453
712.79595947	2.92156863
712.79974365	3.05882359
712.80395508	2.80392146
712.80798340	2.74509811
712.81219482	2.70588231
712.81610107	2.86274505
712.82019043	3.09803915
712.82440186	3.23529410
712.82440186	3.29411769
712.82849121	3.35294127
712.83251953	3.31372547
712.83654785	3.41176462
712.83654785	3.41176462
712.84075928	3.41176462
712.84478760	3.39215684
712.84887695	3.60784316
712.85321045	3.58823538
712.85321045	3.54901958
712.85736084	3.54901958
712.86138916	3.62745094
712.86547852	3.66666675
712.86547852	3.60784316
712.86944580	3.54901958
712.87347412	3.37254906
712.87762451	3.45098042
712.88171387	3.47058821
712.88171387	3.41176462
712.88568115	3.47058821
712.88983154	3.47058821
712.89398193	3.39215684
712.89398193	2.96078420
712.89801025	3.00000000
712.90203857	2.96078420
712.90618896	2.84313726
712.91033936	2.88235283
712.91033936	2.64705873
712.91448975	2.62745094
712.91851807	2.62745094
712.92297363	2.74509811
712.92297363	2.90196085
712.92700195	2.80392146
712.93084717	2.66666675
712.93487549	2.60784316
712.93896484	2.60784316
712.93896484	2.54901958
712.94311523	2.39215684
712.94738770	2.29411769
712.95135498	2.25490189
712.95135498	2.21568632
712.95532227	2.25490189
712.95971680	2.31372547
712.96368408	2.45098042
712.96771240	2.41176462
712.96771240	2.33333325
712.97174072	2.13725495
712.97613525	2.05882359
712.97998047	2.11764717
712.97998047	2.15686274
712.98406982	2.09803915
712.98809814	2.01960778
712.99243164	2.25490189
712.99658203	2.17647052
712.99658203	2.11764717
713.00061035	2.13725495
713.00463867	2.11764717
713.00885010	2.09803915
713.00885010	2.07843137
713.01281738	1.90196073
713.01690674	1.68627453
713.02093506	1.35294116
713.02496338	0.92156863
713.02496338	0.70588237
713.02935791	0.88235295
713.03320313	1.39215684
713.03735352	2.39215684
713.03735352	3.58823538
713.04138184	4.49019623
713.04553223	4.98039198
713.04962158	4.98039198
713.05407715	4.98039198
713.05407715	4.98039198
713.05773926	4.96078444
713.06207275	4.76470566
713.06597900	4.27450991
713.06597900	3.58823538
713.07006836	2.64705873
713.07421875	1.90196073
713.07818604	1.37254906
713.08233643	0.96078432
713.08654785	1.03921568
713.09063721	1.15686274
713.09478760	1.23529410
713.09478760	1.41176474
713.09875488	1.72549021
713.10284424	1.78431368
713.10699463	1.76470590
713.11132813	1.76470590
713.11529541	1.84313726
713.11932373	2.01960778
713.12335205	2.15686274
713.12335205	2.05882359
713.12744141	2.05882359
713.13146973	2.21568632
713.13574219	2.27450991
713.13970947	2.37254906
713.14385986	2.45098042
713.14788818	2.76470590
713.15216064	2.90196085
713.15216064	2.54901958
713.15612793	2.43137264
713.16021729	2.37254906
713.16442871	2.47058821
713.16833496	2.78431368
713.17248535	2.78431368
713.17657471	2.94117641
713.18072510	3.09803915
713.18072510	3.17647052
713.18475342	3.19607854
713.18884277	3.29411769
713.19293213	3.39215684
713.19293213	3.35294127
713.19714355	3.45098042
713.20111084	3.60784316
713.20520020	3.58823538
713.20935059	3.58823538
713.20935059	3.56862736
713.21356201	3.49019599
713.21759033	3.49019599
713.22167969	3.58823538
713.22167969	3.58823538
713.22570801	3.47058821
713.22985840	3.41176462
713.23400879	3.11764717
713.23834229	3.05882359
713.23834229	3.07843137
713.24237061	3.05882359
713.24621582	3.00000000
713.25036621	2.86274505
713.25036621	2.78431368
713.25451660	2.78431368
713.25848389	2.76470590
713.26263428	2.80392146
713.26678467	2.80392146
713.26678467	2.82352948
713.27081299	2.68627453
713.27490234	2.58823538
713.27929688	2.50980401
713.27929688	2.58823538
713.28308105	2.56862736
713.28729248	2.39215684
713.29125977	2.54901958
713.29547119	2.41176462
713.29547119	2.27450991
713.29956055	2.33333325
713.30364990	2.49019599
713.30780029	2.00000000
713.30780029	1.74509799
713.31207275	1.60784316
713.31585693	1.58823526
713.32000732	1.56862748
713.32409668	1.62745094
713.32409668	1.45098042
713.32806396	1.52941179
713.33221436	1.50980389
713.33636475	1.45098042
713.33636475	1.54901958
713.34045410	1.66666663
713.34454346	1.66666663
713.34881592	1.68627453
713.35272217	1.60784316
713.35272217	1.64705884
713.35687256	1.80392158
713.36120605	1.84313726
713.36529541	1.78431368
713.36529541	1.74509799
713.36938477	1.70588231
713.37322998	1.72549021
713.37738037	1.66666663
713.38153076	1.86274505
713.38153076	1.43137252
713.38543701	0.86274511
713.38958740	0.47058824
713.39373779	0.23529412
713.39373779	0.47058824
713.39770508	1.03921568
713.40185547	1.88235295
713.40594482	3.00000000
713.41015625	4.00000000
713.41015625	4.98039198
713.41418457	4.98039198
713.41821289	4.98039198
713.42230225	4.98039198
713.42230225	4.80392170
713.42645264	4.19607830
713.43084717	3.54901958
713.43499756	2.58823538
713.43878174	1.15686274
713.44287109	0.98039216
713.44702148	0.74509805
713.45117188	0.70588237
713.45117188	0.70588237
713.45513916	0.76470590
713.45922852	0.88235295
713.46331787	1.09803927
713.46759033	1.35294116
713.47143555	1.35294116
713.47576904	1.31372547
713.47979736	1.35294116
713.47979736	1.54901958
713.48406982	1.72549021
713.48797607	1.84313726
713.49194336	1.78431368
713.49633789	1.70588231
713.50030518	1.78431368
713.50427246	1.82352936
713.50830078	2.00000000
713.50830078	2.05882359
713.51251221	2.15686274
713.51660156	2.23529410
713.52075195	2.45098042
713.52471924	2.56862736
713.52899170	2.80392146
713.53302002	2.84313726
713.53710938	2.72549009
713.53710938	2.80392146
713.54107666	2.84313726
713.54541016	2.96078420
713.54937744	3.05882359
713.55346680	3.25490189
713.55767822	3.27450991
713.56182861	3.31372547
713.56579590	3.39215684
713.56579590	3.43137264
713.56982422	3.62745094
713.57397461	3.72549009
713.57812500	3.62745094
713.57812500	3.68627453
713.58215332	3.70588231
713.58618164	3.58823538
713.59039307	3.45098042
713.59448242	3.27450991
713.59448242	3.15686274
713.59851074	3.19607854
713.60266113	3.17647052
713.60681152	3.23529410
713.60681152	3.09803915
713.61096191	2.96078420
713.61486816	2.84313726
713.61920166	2.74509811
713.62322998	2.86274505
713.62322998	2.90196085
713.62725830	3.01960778
713.63122559	3.03921580
713.63531494	2.78431368
713.63531494	2.70588231
713.63946533	2.76470590
713.64355469	2.72549009
713.64770508	2.66666675
713.65173340	2.80392146
713.65173340	2.82352948
713.65582275	2.70588231
713.65991211	2.49019599
713.66412354	2.13725495
713.66412354	2.11764717
713.66815186	2.00000000
713.67218018	1.80392158
713.67639160	1.68627453
713.68066406	1.74509799
713.68066406	1.70588231
713.68475342	1.68627453
713.68878174	1.68627453
713.69274902	1.64705884
713.69274902	1.64705884
713.69683838	1.56862748
713.70098877	1.54901958
713.70501709	1.70588231
713.70904541	1.68627453
713.70904541	1.78431368
713.71319580	1.64705884
713.71734619	1.70588231
713.72131348	1.70588231
713.72131348	1.82352936
713.72546387	1.72549021
713.72973633	1.84313726
713.73370361	1.70588231
713.73785400	1.64705884
713.73785400	1.54901958
713.74206543	1.39215684
713.74627686	1.09803927
713.75012207	0.76470590
713.75012207	0.21568628
713.75427246	0.01960784
713.75817871	0.07843138
713.76245117	0.60784316
713.76660156	1.70588231
713.76660156	3.17647052
713.77062988	4.58823538
713.77471924	4.98039198
713.77893066	4.98039198
713.77893066	4.98039198
713.78295898	4.98039198
713.78698730	4.98039198
713.79107666	4.98039198
713.79541016	4.09803915
713.79925537	2.96078420
713.80328369	1.86274505
713.80773926	1.19607842
713.80773926	0.88235295
713.81152344	0.78431374
713.81573486	0.80392158
713.81970215	0.90196079
713.82379150	0.76470590
713.82781982	0.70588237
713.83203125	0.82352942
713.83612061	0.78431374
713.83612061	0.84313726
713.84020996	0.86274511
713.84436035	0.90196079
713.84838867	1.05882359
713.85260010	1.15686274
713.85662842	1.27450979
713.86071777	1.35294116
713.86492920	1.25490201
713.86492920	1.31372547
713.86901855	1.45098042
713.87322998	1.41176474
713.87738037	1.54901958
713.88110352	1.76470590
713.88531494	1.80392158
713.88934326	1.92156863
713.89343262	2.03921580
713.89343262	1.94117641
713.89764404	1.98039210
713.90179443	1.98039210
713.90570068	2.13725495
713.90985107	2.25490189
713.91400146	2.33333325
713.91796875	2.33333325
713.92205811	2.41176462
713.92205811	2.43137264
713.92620850	2.56862736
713.93041992	2.66666675
713.93444824	2.54901958
713.93444824	2.68627453
713.93853760	2.72549009
713.94262695	2.62745094
713.94683838	2.64705873
713.95086670	2.72549009
713.95086670	2.82352948
713.95483398	2.86274505
713.95898438	3.00000000
713.96331787	3.03921580
713.96331787	2.86274505
713.96722412	2.74509811
713.97125244	2.86274505
713.97534180	2.88235283
713.97949219	2.82352948
713.97949219	2.80392146
713.98364258	2.78431368
713.98773193	2.80392146
713.99176025	2.78431368
713.99176025	2.70588231
713.99609375	2.66666675
714.00000000	2.52941179
714.00445557	2.52941179
714.00817871	2.50980401
714.00817871	2.52941179
714.01251221	2.47058821
714.01635742	2.60784316
714.02050781	2.60784316
714.02050781	2.37254906
714.02447510	2.19607854
714.02893066	2.23529410
714.03271484	2.11764717
714.03686523	2.15686274
714.03686523	2.00000000
714.04083252	1.76470590
714.04534912	1.72549021
714.04919434	1.58823526
714.04919434	1.41176474
714.05328369	1.39215684
714.05731201	1.49019611
714.06140137	1.31372547
714.06567383	1.27450979
714.06567383	1.29411769
714.06964111	1.29411769
714.07379150	1.43137252
714.07781982	1.43137252
714.07781982	1.49019611
714.08184814	1.29411769
714.08599854	1.35294116
714.09008789	1.47058821
714.09423828	1.41176474
714.09423828	1.37254906
714.09826660	1.33333337
714.10235596	1.27450979
714.10650635	1.07843137
714.10650635	0.74509805
714.11059570	0.35294119
714.11474609	0.01960784
714.11871338	0.01960784
714.12298584	0.09803922
714.12298584	0.68627453
714.12725830	1.88235295
714.13098145	3.39215684
714.13513184	4.84313726
714.13513184	4.98039198
714.13928223	4.98039198
714.14337158	4.98039198
714.14758301	4.98039198
714.15148926	4.98039198
714.15148926	4.98039198
714.15557861	4.80392170
714.15972900	4.00000000
714.16387939	2.72549009
714.16387939	1.66666663
714.16784668	1.05882359
714.17205811	0.68627453
714.17620850	0.52941179
714.18023682	0.64705884
714.18420410	0.84313726
714.18835449	1.03921568
714.19250488	0.92156863
714.19250488	0.58823532
714.19659424	0.66666669
714.20074463	0.70588237
714.20465088	0.66666669
714.20892334	0.94117647
714.21307373	0.96078432
714.21710205	1.07843137
714.22137451	1.11764705
714.22137451	1.33333337
714.22528076	1.25490201
714.22955322	1.29411769
714.23358154	1.39215684
714.23760986	1.62745094
714.24176025	1.74509799
714.24578857	1.78431368
714.24993896	1.88235295
714.24993896	1.90196073
714.25415039	1.96078432
714.25811768	2.11764717
714.26245117	2.13725495
714.26623535	2.21568632
714.27087402	2.31372547
714.27435303	2.41176462
714.27862549	2.62745094
714.27862549	2.74509811
714.28259277	2.76470590
714.28668213	2.64705873
714.29083252	2.54901958
714.29479980	2.58823538
714.29901123	2.60784316
714.30310059	2.54901958
714.30718994	2.58823538
714.30718994	2.62745094
714.31127930	2.64705873
714.31542969	2.76470590
714.31958008	2.84313726
714.31958008	2.88235283
714.32360840	3.00000000
714.32769775	2.86274505
714.33172607	2.80392146
714.33587646	2.70588231
714.33587646	2.64705873
714.33996582	2.70588231
714.34405518	2.50980401
714.34814453	2.45098042
714.34814453	2.45098042
714.35217285	2.33333325
714.35632324	2.25490189
714.36047363	2.23529410
714.36456299	2.09803915
714.36456299	2.15686274
714.36877441	2.15686274
714.37298584	2.01960778
714.37707520	1.98039210
714.37707520	2.07843137
714.38104248	2.07843137
714.38519287	1.96078432
714.38909912	1.82352936
714.39324951	1.70588231
714.39324951	1.66666663
714.39752197	1.66666663
714.40167236	1.52941179
714.40551758	1.45098042
714.40551758	1.33333337
714.40954590	1.37254906
714.41369629	1.49019611
714.41772461	1.35294116
714.42187500	1.09803927
714.42187500	1.15686274
714.42590332	1.09803927
714.43011475	1.03921568
714.43426514	0.92156863
714.43426514	1.01960790
714.43823242	1.07843137
714.44238281	1.13725495
714.44671631	1.07843137
714.45068359	1.09803927
714.45068359	1.07843137
714.45477295	1.19607842
714.45867920	1.11764705
714.46295166	1.15686274
714.46295166	1.17647064
714.46697998	1.13725495
714.47100830	1.03921568
714.47509766	0.70588237
714.47924805	0.33333334
714.47924805	0.01960784
714.48339844	0.01960784
714.48742676	0.01960784
714.49151611	0.43137255
714.49151611	1.15686274
714.49572754	2.29411769
714.49969482	3.50980401
714.50390625	4.56862736
714.50787354	4.98039198
714.50787354	4.98039198
714.51214600	4.98039198
714.51617432	4.64705896
714.52020264	3.90196085
714.52020264	3.19607854
714.52416992	2.35294127
714.52850342	1.47058821
714.53253174	0.50980395
714.53662109	0.01960784
714.54077148	0.01960784
714.54486084	0.01960784
714.54888916	0.01960784
714.54888916	0.23529412
714.55291748	0.45098040
714.55706787	0.50980395
714.56103516	0.64705884
714.56524658	0.68627453
714.56958008	0.82352942
714.57348633	0.84313726
714.57763672	0.78431374
714.57763672	0.86274511
714.58172607	0.84313726
714.58569336	0.78431374
714.58984375	0.96078432
714.59399414	1.19607842
714.59832764	1.27450979
714.60211182	1.33333337
714.60626221	1.39215684
714.60626221	1.68627453
714.61029053	1.66666663
714.61437988	1.66666663
714.61859131	1.66666663
714.62268066	1.92156863
714.62683105	1.98039210
714.63085938	2.05882359
714.63507080	2.13725495
714.63507080	2.13725495
714.63903809	2.11764717
714.64312744	2.11764717
714.64727783	2.15686274
714.65130615	2.23529410
714.65533447	2.29411769
714.65942383	2.49019599
714.66357422	2.56862736
714.66357422	2.49019599
714.66784668	2.49019599
714.67169189	2.45098042
714.67590332	2.29411769
714.67590332	2.27450991
714.67999268	2.23529410
714.68408203	2.23529410
714.68804932	2.15686274
714.69250488	2.11764717
714.69250488	2.00000000
714.69659424	1.84313726
714.70043945	1.82352936
714.70452881	1.66666663
714.70452881	1.52941179
714.70867920	1.50980389
714.71301270	1.39215684
714.71685791	1.37254906
714.72100830	1.49019611
714.72100830	1.45098042
714.72491455	1.45098042
714.72912598	1.35294116
714.73327637	1.17647064
714.73327637	0.92156863
714.73730469	0.90196079
714.74133301	0.92156863
714.74554443	1.01960790
714.74963379	0.90196079
714.74963379	0.80392158
714.75384521	0.66666669
714.75769043	0.66666669
714.76208496	0.60784316
714.76208496	0.47058824
714.76599121	0.39215687
714.77008057	0.52941179
714.77404785	0.52941179
714.77825928	0.47058824
714.77825928	0.39215687
714.78240967	0.09803922
714.78649902	0.01960784
714.79058838	0.01960784
714.79058838	0.01960784
714.79473877	0.01960784
714.79876709	0.09803922
714.80291748	0.01960784
714.80700684	0.01960784
714.80700684	0.01960784
714.81097412	0.01960784
714.81512451	0.01960784
714.81927490	0.05882353
714.81927490	0.17647059
714.82348633	0.17647059
714.82739258	0.15686275
714.83154297	0.21568628
714.83569336	0.15686275
714.83569336	0.05882353
714.83972168	0.01960784
714.84387207	0.01960784
714.84790039	0.01960784
714.84790039	0.01960784
714.85192871	0.01960784
714.85620117	0.01960784
714.86022949	0.31372550
714.86431885	1.11764705
714.86431885	2.03921580
714.86834717	3.07843137
714.87249756	4.41176462
714.87670898	4.98039198
714.87670898	4.98039198
714.88092041	4.84313726
714.88500977	4.25490189
714.88909912	3.54901958
714.89300537	2.74509811
714.89300537	1.64705884
714.89709473	0.54901963
714.90112305	0.01960784
714.90521240	0.01960784
714.90521240	0.01960784
714.90936279	0.05882353
714.91363525	0.09803922
714.91748047	0.07843138
714.92175293	0.05882353
714.92572021	0.11764706
714.92999268	0.27450982
714.93395996	0.17647059
714.93395996	0.21568628
714.93798828	0.27450982
714.94213867	0.35294119
714.94622803	0.47058824
714.95037842	0.54901963
714.95471191	0.66666669
714.95849609	0.82352942
714.96295166	0.76470590
714.96295166	0.90196079
714.96667480	0.80392158
714.97076416	0.94117647
714.97491455	1.05882359
714.97906494	1.21568632
714.98315430	1.15686274
714.98724365	1.17647064
714.99121094	1.17647064
714.99121094	1.11764705
714.99548340	1.31372547
714.99951172	1.31372547
715.00360107	1.37254906
715.00769043	1.54901958
715.01202393	1.62745094
715.01593018	1.84313726
715.02008057	1.98039210
715.02008057	1.96078432
715.02404785	1.84313726
715.02807617	1.82352936
715.03222656	1.96078432
715.03222656	2.01960778
715.03643799	2.05882359
715.04046631	2.03921580
715.04443359	2.05882359
715.04876709	2.03921580
715.04876709	2.09803915
715.05279541	2.11764717
715.05688477	2.11764717
715.06103516	2.11764717
715.06103516	2.23529410
715.06500244	2.21568632
715.06909180	2.13725495
715.07324219	1.88235295
715.07745361	1.90196073
715.07745361	1.88235295
715.08142090	1.88235295
715.08551025	1.70588231
715.08959961	1.78431368
715.08959961	1.70588231
715.09375000	1.54901958
715.09783936	1.68627453
715.10186768	1.74509799
715.10595703	1.66666663
715.10595703	1.70588231
715.11022949	1.64705884
715.11413574	1.56862748
715.11822510	1.39215684
715.11822510	1.29411769
715.12237549	1.19607842
715.12652588	1.00000000
715.13049316	0.98039216
715.13476563	0.94117647
715.13476563	0.86274511
715.13897705	0.84313726
715.14349365	0.82352942
715.14703369	0.76470590
715.14703369	0.88235295
715.15100098	0.72549021
715.15502930	0.82352942
715.15924072	0.82352942
715.16351318	0.78431374
715.16351318	0.56862748
715.16735840	0.76470590
715.17144775	0.80392158
715.17578125	0.84313726
715.17578125	0.88235295
715.17974854	0.96078432
715.18377686	0.98039216
715.18792725	0.98039216
715.19201660	1.09803927
715.19201660	1.00000000
715.19622803	0.98039216
715.20025635	0.98039216
715.20501709	0.60784316
715.20501709	0.29411766
715.20837402	0.01960784
715.21270752	0.05882353
715.21661377	0.07843138
715.22088623	0.37254903
715.22088623	0.60784316
715.22473145	1.58823526
715.22894287	3.17647052
715.23297119	4.62745094
715.23297119	4.98039198
715.23706055	4.98039198
715.24108887	4.98039198
715.24536133	4.98039198
715.24938965	4.88235283
715.25354004	4.64705896
715.25750732	3.76470590
715.26190186	2.41176462
715.26190186	1.17647064
715.26593018	0.49019608
715.26983643	0.17647059
715.27404785	0.01960784
715.27795410	0.19607843
715.28216553	0.21568628
715.28625488	0.17647059
715.29040527	0.27450982
715.29040527	0.31372550
715.29431152	0.39215687
715.29858398	0.45098040
715.30261230	0.47058824
715.30676270	0.50980395
715.31072998	0.76470590
715.31488037	0.80392158
715.31903076	0.76470590
715.31903076	0.84313726
715.32305908	0.96078432
715.32727051	0.98039216
715.33123779	1.17647064
715.33544922	1.39215684
715.33947754	1.60784316
715.34356689	1.66666663
715.34796143	1.72549021
715.34796143	1.84313726
715.35205078	2.01960778
715.35583496	2.01960778
715.35992432	2.01960778
715.36401367	1.94117641
715.36810303	2.13725495
715.37219238	2.27450991
715.37646484	2.33333325
715.37646484	2.43137264
715.38049316	2.49019599
715.38464355	2.60784316
715.38879395	2.60784316
715.38879395	2.58823538
715.39282227	2.54901958
715.39697266	2.64705873
715.40093994	2.76470590
715.40502930	2.90196085
715.40502930	3.17647052
715.40911865	3.01960778
715.41345215	3.00000000
715.41735840	2.98039222
715.41735840	2.98039222
715.42138672	3.05882359
715.42547607	3.09803915
715.42962646	2.78431368
715.43377686	2.82352948
715.43377686	2.68627453
715.43774414	2.70588231
715.44183350	2.68627453
715.44628906	2.62745094
715.44628906	2.78431368
715.45007324	2.74509811
715.45404053	2.50980401
715.45843506	2.35294127
715.46270752	2.15686274
715.46270752	2.31372547
715.46649170	2.23529410
715.47045898	2.21568632
715.47467041	2.19607854
715.47467041	2.13725495
715.47888184	2.03921580
715.48284912	2.21568632
715.48693848	1.96078432
715.49096680	1.80392158
715.49096680	1.66666663
715.49542236	1.68627453
715.49932861	1.54901958
715.50335693	1.50980389
715.50335693	1.45098042
715.50732422	1.45098042
715.51147461	1.41176474
715.51556396	1.50980389
715.51971436	1.62745094
715.51971436	1.56862748
715.52392578	1.35294116
715.52789307	1.23529410
715.53204346	1.31372547
715.53204346	1.35294116
715.53607178	1.35294116
715.54028320	1.47058821
715.54425049	1.47058821
715.54840088	1.56862748
715.54840088	1.60784316
715.55249023	1.64705884
715.55657959	1.45098042
715.56066895	1.58823526
715.56066895	1.49019611
715.56475830	1.21568632
715.56884766	1.07843137
715.57299805	0.80392158
715.57702637	0.45098040
715.57702637	0.15686275
715.58117676	0.11764706
715.58551025	0.19607843
715.58935547	0.92156863
715.58935547	2.03921580
715.59350586	3.33333325
715.59753418	4.76470566
715.60180664	4.98039198
715.60571289	4.94117641
715.60571289	4.98039198
715.60980225	4.98039198
715.61395264	4.92156839
715.61798096	4.72549009
715.61798096	4.29411745
715.62213135	3.13725495
715.62622070	2.07843137
715.63037109	1.17647064
715.63439941	0.47058824
715.63885498	0.39215687
715.64270020	0.50980395
715.64691162	0.64705884
715.64691162	0.60784316
715.65081787	0.72549021
715.65490723	0.80392158
715.65893555	1.01960790
715.66357422	0.84313726
715.66717529	0.82352942
715.67126465	0.96078432
715.67535400	0.82352942
715.67535400	0.96078432
715.67944336	1.11764705
715.68353271	1.11764705
715.68768311	1.27450979
715.69177246	1.47058821
715.69610596	1.60784316
715.70001221	1.72549021
715.70410156	1.76470590
715.70410156	1.62745094
715.70819092	1.88235295
715.71234131	1.96078432
715.71636963	2.01960778
715.72052002	2.41176462
715.72442627	2.31372547
715.72875977	2.43137264
715.73278809	2.45098042
715.73278809	2.52941179
715.73669434	2.58823538
715.74084473	2.66666675
715.74530029	2.64705873
715.74908447	3.05882359
715.75317383	3.13725495
715.75726318	3.21568632
715.76135254	3.21568632
715.76135254	3.15686274
715.76550293	2.98039222
715.76965332	3.21568632
715.77386475	3.17647052
715.77386475	2.92156863
715.77783203	2.88235283
715.78186035	2.96078420
715.78594971	3.05882359
715.79010010	2.92156863
715.79010010	2.70588231
715.79412842	2.50980401
715.79827881	2.74509811
715.80230713	2.60784316
715.80230713	2.50980401
715.80651855	2.49019599
715.81048584	2.47058821
715.81475830	2.27450991
715.81872559	2.52941179
715.81872559	2.50980401
715.82287598	2.43137264
715.82696533	2.31372547
715.83105469	2.05882359
715.83105469	2.03921580
715.83532715	2.33333325
715.83929443	2.27450991
715.84344482	2.05882359
715.84753418	2.00000000
715.84753418	2.09803915
715.85144043	1.92156863
715.85559082	1.76470590
715.85974121	1.68627453
715.85974121	1.52941179
715.86370850	1.47058821
715.86791992	1.62745094
715.87200928	1.37254906
715.87609863	1.39215684
715.87609863	1.45098042
715.88018799	1.39215684
715.88427734	1.45098042
715.88836670	1.27450979
715.88836670	1.45098042
715.89245605	1.37254906
715.89678955	1.49019611
715.90100098	1.49019611
715.90502930	1.52941179
715.90502930	1.31372547
715.90887451	1.33333337
715.91320801	1.41176474
715.91705322	1.41176474
715.91705322	1.29411769
715.92108154	1.39215684
715.92523193	1.43137252
715.92932129	1.37254906
715.93347168	1.31372547
715.93347168	1.23529410
715.93756104	1.21568632
715.94171143	0.76470590
715.94573975	0.41176471
715.94573975	0.31372550
715.94982910	0.47058824
715.95379639	0.74509805
715.95819092	1.39215684
715.96240234	2.41176462
715.96240234	3.49019599
715.96643066	4.60784292
715.97027588	4.98039198
715.97436523	4.82352924
715.97436523	4.98039198
715.97857666	4.88235283
715.98266602	4.54901981
715.98669434	3.98039222
715.99084473	3.13725495
715.99084473	2.23529410
715.99493408	1.41176474
715.99896240	0.86274511
716.00305176	0.52941179
716.00305176	0.35294119
716.00708008	0.35294119
716.01123047	0.66666669
716.01531982	0.80392158
716.01947021	1.00000000
716.02368164	1.03921568
716.02801514	1.07843137
716.03173828	1.19607842
716.03173828	1.17647064
716.03588867	1.25490201
716.03997803	1.39215684
716.04400635	1.49019611
716.04821777	1.90196073
716.05224609	1.68627453
716.05633545	1.70588231
716.06048584	1.74509799
716.06048584	1.68627453
716.06451416	1.64705884
716.06860352	1.64705884
716.07269287	1.76470590
716.07684326	1.98039210
716.08087158	2.07843137
716.08496094	2.17647052
716.08935547	2.27450991
716.08935547	2.21568632
716.09326172	2.21568632
716.09729004	2.41176462
716.10137939	2.56862736
716.10540771	2.62745094
716.10955811	2.72549009
716.11370850	2.76470590
716.11773682	2.70588231
716.11773682	2.80392146
716.12182617	2.80392146
716.12597656	2.62745094
716.13006592	2.72549009
716.13415527	2.96078420
716.13830566	3.05882359
716.14239502	3.01960778
716.14654541	2.78431368
716.14654541	2.82352948
716.15051270	2.78431368
716.15484619	2.64705873
716.15875244	2.70588231
716.15875244	2.64705873
716.16302490	2.35294127
716.16687012	2.58823538
716.17089844	2.50980401
716.17504883	2.45098042
716.17504883	2.29411769
716.17926025	2.27450991
716.18334961	2.25490189
716.18743896	2.29411769
716.18743896	2.37254906
716.19152832	2.25490189
716.19561768	2.09803915
716.19970703	2.05882359
716.20391846	2.23529410
716.20391846	2.05882359
716.20794678	2.05882359
716.21228027	2.03921580
716.21636963	1.92156863
716.21636963	1.86274505
716.22015381	1.82352936
716.22424316	1.74509799
716.22845459	1.49019611
716.23248291	1.43137252
716.23248291	1.35294116
716.23663330	1.39215684
716.24078369	1.35294116
716.24468994	1.27450979
716.24468994	1.37254906
716.24884033	1.47058821
716.25299072	1.17647064
716.25695801	1.17647064
716.26110840	1.21568632
716.26110840	1.33333337
716.26519775	1.21568632
716.26934814	1.09803927
716.27349854	1.13725495
716.27349854	1.25490201
716.27752686	1.27450979
716.28179932	1.27450979
716.28576660	1.27450979
716.28979492	1.25490201
716.28979492	1.35294116
716.29382324	1.41176474
716.29803467	1.49019611
716.30212402	1.43137252
716.30212402	1.29411769
716.30621338	1.15686274
716.31024170	0.90196079
716.31439209	0.58823532
716.31842041	0.29411766
716.31842041	0.35294119
716.32287598	0.60784316
716.32702637	1.56862748
716.33074951	2.82352948
716.33074951	4.00000000
716.33483887	4.98039198
716.33911133	4.98039198
716.34313965	4.98039198
716.34722900	4.98039198
716.34722900	4.88235283
716.35125732	4.70588255
716.35528564	4.23529434
716.35949707	3.47058821
716.35949707	2.56862736
716.36358643	1.78431368
716.36773682	1.27450979
716.37170410	0.96078432
716.37591553	0.76470590
716.37994385	0.88235295
716.38397217	0.96078432
716.38812256	1.21568632
716.38812256	1.35294116
716.39227295	1.37254906
716.39648438	1.45098042
716.40063477	1.58823526
716.40478516	1.62745094
716.40887451	1.70588231
716.41284180	1.66666663
716.41711426	1.58823526
716.41711426	1.66666663
716.42083740	1.70588231
716.42498779	1.70588231
716.42919922	1.74509799
716.43322754	2.09803915
716.43719482	2.25490189
716.44140625	2.27450991
716.44573975	2.05882359
716.44573975	2.09803915
716.44970703	2.37254906
716.45379639	2.35294127
716.45776367	2.45098042
716.46203613	2.41176462
716.46594238	2.50980401
716.47009277	2.64705873
716.47412109	2.68627453
716.47412109	2.66666675
716.47845459	2.68627453
716.48242188	2.88235283
716.48645020	2.88235283
716.49047852	2.98039222
716.49468994	3.01960778
716.49877930	2.88235283
716.50292969	3.09803915
716.50292969	3.15686274
716.50689697	3.27450991
716.51092529	3.15686274
716.51513672	3.03921580
716.51513672	3.29411769
716.51922607	3.21568632
716.52337646	3.13725495
716.52734375	3.05882359
716.53173828	3.03921580
716.53173828	2.96078420
716.53588867	3.05882359
716.53973389	3.01960778
716.54388428	2.92156863
716.54388428	2.80392146
716.54791260	2.78431368
716.55200195	2.78431368
716.55615234	2.54901958
716.56024170	2.56862736
716.56024170	2.62745094
716.56420898	2.33333325
716.56842041	2.47058821
716.57250977	2.47058821
716.57250977	2.41176462
716.57684326	2.33333325
716.58081055	2.35294127
716.58471680	2.23529410
716.58886719	2.25490189
716.58886719	2.09803915
716.59295654	1.96078432
716.59710693	1.78431368
716.60113525	1.70588231
716.60113525	1.58823526
716.60528564	1.41176474
716.60931396	1.49019611
716.61346436	1.41176474
716.61749268	1.37254906
716.61749268	1.35294116
716.62158203	1.56862748
716.62567139	1.43137252
716.62988281	1.41176474
716.62988281	1.47058821
716.63391113	1.45098042
716.63800049	1.45098042
716.64208984	1.52941179
716.64642334	1.56862748
716.64642334	1.60784316
716.65026855	1.68627453
716.65454102	1.56862748
716.65875244	1.56862748
716.65875244	1.54901958
716.66290283	1.47058821
716.66674805	1.41176474
716.67071533	1.25490201
716.67480469	0.74509805
716.67480469	0.31372550
716.67907715	0.09803922
716.68316650	0.13725491
716.68719482	0.37254903
716.68719482	1.00000000
716.69128418	2.05882359
716.69555664	3.41176462
716.69946289	4.78431368
716.70361328	4.98039198
716.70361328	4.98039198
716.70770264	4.94117641
716.71179199	4.98039198
716.71588135	4.98039198
716.71588135	4.86274529
716.72021484	4.54901981
716.72399902	3.62745094
716.72808838	2.49019599
716.73229980	0.94117647
716.73632813	0.74509805
716.74029541	0.70588237
716.74450684	0.64705884
716.74450684	0.70588237
716.74859619	0.86274511
716.75268555	1.03921568
716.75689697	0.94117647
716.76086426	0.82352942
716.76501465	0.86274511
716.76910400	1.09803927
716.77319336	1.17647064
716.77319336	1.13725495
716.77722168	1.25490201
716.78143311	1.21568632
716.78582764	1.17647064
716.78961182	1.50980389
716.79376221	1.52941179
716.79785156	1.47058821
716.80187988	1.78431368
716.80187988	1.88235295
716.80609131	1.90196073
716.81005859	2.07843137
716.81420898	2.09803915
716.81817627	2.27450991
716.82232666	2.37254906
716.82666016	2.41176462
716.83062744	2.49019599
716.83062744	2.50980401
716.83477783	2.76470590
716.83868408	2.82352948
716.84289551	2.94117641
716.84698486	3.23529410
716.85107422	3.33333325
716.85516357	3.17647052
716.85919189	3.25490189
716.85919189	3.31372547
716.86352539	3.25490189
716.86743164	3.19607854
716.87152100	3.33333325
716.87554932	3.35294127
716.87976074	3.43137264
716.88378906	3.37254906
716.88787842	3.17647052
716.88787842	3.35294127
716.89196777	3.33333325
716.89624023	3.29411769
716.90026855	3.27450991
716.90026855	3.25490189
716.90423584	3.27450991
716.90850830	3.21568632
716.91278076	3.11764717
716.91687012	3.15686274
716.91687012	3.13725495
716.92071533	3.13725495
716.92474365	2.86274505
716.92889404	2.70588231
716.92889404	2.70588231
716.93298340	2.70588231
716.93701172	2.68627453
716.94110107	2.76470590
716.94555664	2.74509811
716.94555664	2.78431368
716.94940186	2.68627453
716.95336914	2.50980401
716.95745850	2.13725495
716.95745850	2.21568632
716.96166992	2.03921580
716.96575928	1.86274505
716.96984863	1.76470590
716.97381592	1.52941179
716.97381592	1.68627453
716.97827148	1.64705884
716.98205566	1.62745094
716.98632813	1.62745094
716.98632813	1.58823526
716.99017334	1.68627453
716.99475098	1.54901958
716.99859619	1.58823526
717.00256348	1.64705884
717.00256348	1.68627453
717.00671387	1.58823526
717.01074219	1.82352936
717.01483154	1.84313726
717.01483154	1.94117641
717.01892090	2.01960778
717.02307129	1.92156863
717.02728271	1.82352936
717.03125000	1.84313726
717.03125000	1.82352936
717.03540039	1.60784316
717.03973389	1.25490201
717.04376221	0.82352942
717.04376221	0.47058824
717.04779053	0.21568628
717.05175781	0.45098040
717.05578613	1.15686274
717.05993652	2.17647052
717.05993652	3.35294127
717.06408691	4.76470566
717.06805420	4.98039198
717.07220459	4.98039198
717.07220459	4.98039198
717.07635498	4.98039198
717.08038330	4.98039198
717.08459473	4.86274529
717.08862305	4.68627453
717.08862305	3.98039222
717.09271240	2.82352948
717.09674072	2.11764717
717.10113525	1.50980389
717.10113525	1.01960790
717.10522461	0.96078432
717.10913086	1.17647064
717.11322021	0.94117647
717.11724854	1.23529410
717.12133789	1.25490201
717.12554932	1.33333337
717.12982178	1.43137252
717.12982178	1.52941179
717.13378906	1.56862748
717.13769531	1.56862748
717.14184570	1.78431368
717.14611816	1.62745094
717.15008545	1.90196073
717.15411377	2.09803915
717.15826416	2.13725495
717.15826416	2.17647052
717.16253662	2.03921580
717.16674805	2.23529410
717.17053223	2.23529410
717.17480469	2.49019599
717.17895508	2.50980401
717.18298340	2.62745094
717.18695068	2.50980401
717.18695068	2.70588231
717.19097900	2.70588231
717.19531250	2.76470590
717.19921875	2.88235283
717.20336914	3.00000000
717.20733643	3.15686274
717.21148682	3.27450991
717.21569824	3.31372547
717.21569824	3.45098042
717.21966553	3.47058821
717.22369385	3.56862736
717.22796631	3.43137264
717.23199463	3.49019599
717.23614502	3.64705873
717.24011230	3.66666675
717.24420166	3.64705873
717.24420166	3.66666675
717.24847412	3.41176462
717.25250244	3.25490189
717.25653076	3.09803915
717.25653076	3.09803915
717.26068115	3.05882359
717.26477051	3.05882359
717.26885986	3.17647052
717.27301025	3.43137264
717.27301025	3.09803915
717.27709961	3.13725495
717.28112793	3.03921580
717.28521729	2.96078420
717.28521729	2.94117641
717.28942871	2.98039222
717.29333496	2.88235283
717.29754639	2.76470590
717.30169678	2.76470590
717.30169678	2.70588231
717.30572510	2.54901958
717.30993652	2.68627453
717.31390381	2.64705873
717.31390381	2.56862736
717.31799316	2.60784316
717.32208252	2.41176462
717.32629395	2.31372547
717.33038330	2.35294127
717.33038330	2.33333325
717.33428955	2.17647052
717.33843994	2.03921580
717.34259033	1.86274505
717.34259033	1.74509799
717.34667969	1.76470590
717.35076904	1.94117641
717.35528564	1.94117641
717.35906982	2.05882359
717.35906982	1.98039210
717.36315918	1.90196073
717.36706543	1.76470590
717.37121582	1.56862748
717.37121582	1.62745094
717.37530518	1.72549021
717.37945557	1.82352936
717.38348389	1.78431368
717.38781738	1.88235295
717.38781738	1.98039210
717.39172363	2.07843137
717.39599609	2.00000000
717.39996338	2.19607854
717.39996338	2.21568632
717.40399170	1.84313726
717.40820313	1.54901958
717.41241455	1.29411769
717.41662598	0.84313726
717.41662598	0.60784316
717.42065430	0.86274511
717.42449951	1.17647064
717.42889404	2.03921580
717.42889404	3.25490189
717.43292236	4.21568632
717.43670654	4.98039198
717.44079590	4.98039198
717.44525146	4.94117641
717.44525146	4.98039198
717.44909668	4.84313726
717.45318604	4.39215708
717.45733643	3.88235283
717.45733643	3.17647052
717.46136475	2.21568632
717.46545410	1.29411769
717.46960449	1.07843137
717.47369385	0.94117647
717.47778320	0.92156863
717.48193359	1.01960790
717.48632813	1.17647064
717.48632813	1.45098042
717.48999023	1.70588231
717.49407959	1.54901958
717.49822998	1.47058821
717.50244141	1.52941179
717.50653076	1.58823526
717.51055908	1.82352936
717.51477051	2.03921580
717.51477051	1.96078432
717.51873779	2.00000000
717.52282715	2.09803915
717.52691650	2.15686274
717.53118896	2.50980401
717.53509521	2.58823538
717.53924561	2.49019599
717.54339600	2.43137264
717.54339600	2.47058821
717.54754639	2.56862736
717.55151367	2.76470590
717.55560303	2.78431368
717.55969238	2.92156863
717.56396484	3.00000000
717.56787109	3.03921580
717.57202148	3.21568632
717.57202148	3.21568632
717.57611084	3.29411769
717.58013916	3.45098042
717.58422852	3.54901958
717.58831787	3.64705873
717.59240723	3.54901958
717.59649658	3.49019599
717.60070801	3.47058821
717.60070801	3.43137264
717.60473633	3.33333325
717.60882568	3.58823538
717.61303711	3.50980401
717.61303711	3.33333325
717.61694336	3.29411769
717.62115479	3.31372547
717.62524414	3.19607854
717.62939453	3.11764717
717.62939453	3.09803915
717.63342285	3.03921580
717.63751221	3.07843137
717.64172363	2.94117641
717.64172363	2.96078420
717.64599609	2.80392146
717.64984131	2.82352948
717.65393066	2.92156863
717.65820313	2.68627453
717.65820313	2.86274505
717.66223145	2.54901958
717.66644287	2.49019599
717.67047119	2.52941179
717.67047119	2.27450991
717.67437744	2.41176462
717.67871094	2.41176462
717.68261719	2.47058821
717.68676758	2.31372547
717.68676758	2.23529410
717.69073486	2.21568632
717.69494629	1.96078432
717.69903564	1.80392158
717.69903564	1.76470590
717.70306396	1.66666663
717.70733643	1.66666663
717.71124268	1.70588231
717.71539307	1.49019611
717.71539307	1.41176474
717.71948242	1.39215684
717.72351074	1.37254906
717.72772217	1.54901958
717.72772217	1.41176474
717.73181152	1.37254906
717.73620605	1.49019611
717.73992920	1.45098042
717.74401855	1.47058821
717.74401855	1.33333337
717.74810791	1.54901958
717.75238037	1.56862748
717.75628662	1.58823526
717.75628662	1.60784316
717.76031494	1.66666663
717.76446533	1.64705884
717.76861572	1.52941179
717.77270508	1.54901958
717.77270508	1.43137252
717.77685547	1.29411769
717.78088379	1.05882359
717.78503418	0.58823532
717.78503418	0.21568628
717.78906250	0.21568628
717.79321289	0.50980395
717.79742432	1.17647064
717.80145264	2.47058821
717.80145264	3.45098042
717.80548096	4.74509811
717.80957031	4.98039198
717.81384277	4.98039198
717.81384277	4.94117641
717.81781006	4.98039198
717.82189941	4.84313726
717.82592773	4.35294104
717.83020020	2.84313726
717.83410645	1.80392158
717.83819580	1.11764705
717.84234619	0.82352942
717.84234619	0.62745100
717.84661865	0.72549021
717.85046387	0.82352942
717.85461426	0.84313726
717.85900879	1.23529410
717.86297607	1.31372547
717.86688232	1.50980389
717.87103271	1.47058821
717.87103271	1.45098042
717.87512207	1.41176474
717.87927246	1.43137252
717.88330078	1.60784316
717.88732910	1.92156863
717.89141846	1.72549021
717.89575195	1.72549021
717.89971924	1.82352936
717.89971924	2.00000000
717.90374756	1.90196073
717.90789795	1.86274505
717.91229248	2.00000000
717.91638184	2.37254906
717.92028809	2.21568632
717.92443848	2.35294127
717.92871094	2.27450991
717.92871094	2.33333325
717.93249512	2.39215684
717.93652344	2.56862736
717.94073486	2.66666675
717.94470215	2.72549009
717.94891357	2.76470590
717.95306396	2.76470590
717.95697021	2.80392146
717.95697021	2.80392146
717.96112061	2.88235283
717.96533203	2.88235283
717.96936035	2.98039222
717.96936035	3.15686274
717.97332764	3.15686274
717.97747803	3.27450991
717.98162842	3.17647052
717.98571777	3.11764717
717.98571777	3.07843137
717.98986816	3.15686274
717.99383545	3.11764717
717.99804688	3.19607854
717.99804688	3.35294127
718.00213623	3.25490189
718.00616455	3.07843137
718.01019287	3.05882359
718.01452637	3.07843137
718.01452637	2.96078420
718.01849365	2.96078420
718.02264404	2.88235283
718.02673340	2.68627453
718.02673340	2.72549009
718.03070068	2.60784316
718.03485107	2.54901958
718.03900146	2.52941179
718.04309082	2.58823538
718.04309082	2.47058821
718.04705811	2.41176462
718.05139160	2.43137264
718.05541992	2.45098042
718.05541992	2.35294127
718.05950928	2.17647052
718.06347656	2.05882359
718.06768799	1.98039210
718.07165527	1.90196073
718.07165527	1.66666663
718.07586670	1.68627453
718.08007813	1.72549021
718.08398438	1.62745094
718.08398438	1.52941179
718.08807373	1.45098042
718.09222412	1.43137252
718.09637451	1.52941179
718.10034180	1.41176474
718.10034180	1.50980389
718.10449219	1.54901958
718.10858154	1.68627453
718.11297607	1.76470590
718.11297607	1.47058821
718.11700439	1.45098042
718.12091064	1.49019611
718.12506104	1.37254906
718.12915039	1.39215684
718.12915039	1.52941179
718.13354492	1.56862748
718.13720703	1.66666663
718.14135742	1.56862748
718.14135742	1.31372547
718.14569092	0.88235295
718.14953613	0.41176471
718.15368652	0.11764706
718.15777588	0.07843138
718.15777588	0.21568628
718.16204834	0.76470590
718.16601563	1.72549021
718.17004395	3.15686274
718.17004395	4.62745094
718.17407227	4.98039198
718.17858887	4.98039198
718.18237305	4.98039198
718.18658447	4.92156839
718.18658447	4.98039198
718.19049072	4.94117641
718.19458008	4.78431368
718.19873047	4.07843161
718.19873047	2.86274505
718.20281982	1.54901958
718.20678711	0.90196079
718.21099854	0.58823532
718.21520996	0.33333334
718.21917725	0.56862748
718.22320557	0.52941179
718.22741699	0.47058824
718.22741699	0.45098040
718.23150635	0.37254903
718.23559570	0.58823532
718.23999023	0.37254903
718.24371338	0.56862748
718.24786377	0.60784316
718.25195313	1.01960790
718.25604248	0.98039216
718.25604248	1.00000000
718.26013184	1.09803927
718.26434326	1.11764705
718.26831055	1.11764705
718.27246094	1.27450979
718.27642822	1.47058821
718.28076172	1.58823526
718.28472900	1.74509799
718.28472900	1.80392158
718.28887939	1.84313726
718.29284668	1.92156863
718.29699707	2.07843137
718.30133057	2.25490189
718.30548096	2.13725495
718.30944824	2.17647052
718.31353760	2.27450991
718.31353760	2.29411769
718.31750488	2.29411769
718.32159424	2.39215684
718.32574463	2.52941179
718.32995605	2.74509811
718.33386230	2.78431368
718.33807373	2.66666675
718.34210205	2.74509811
718.34210205	2.82352948
718.34637451	2.74509811
718.35028076	2.86274505
718.35437012	2.92156863
718.35437012	2.98039222
718.35845947	3.01960778
718.36285400	2.90196085
718.36700439	2.86274505
718.37078857	2.88235283
718.37078857	2.88235283
718.37487793	2.76470590
718.37915039	2.72549009
718.38317871	2.90196085
718.38317871	2.90196085
718.38714600	2.86274505
718.39123535	2.84313726
718.39556885	2.76470590
718.39947510	2.64705873
718.39947510	2.50980401
718.40350342	2.47058821
718.40759277	2.29411769
718.41198730	2.33333325
718.41198730	2.25490189
718.41589355	2.27450991
718.41986084	2.41176462
718.42419434	2.35294127
718.42840576	2.17647052
718.42840576	2.09803915
718.43243408	1.94117641
718.43646240	1.82352936
718.44036865	1.78431368
718.44036865	1.64705884
718.44445801	1.60784316
718.44860840	1.54901958
718.45275879	1.45098042
718.45684814	1.35294116
718.45684814	1.45098042
718.46081543	1.41176474
718.46496582	1.17647064
718.46911621	1.21568632
718.46911621	1.39215684
718.47302246	1.39215684
718.47723389	1.35294116
718.48150635	1.45098042
718.48547363	1.25490201
718.48547363	1.25490201
718.48944092	1.37254906
718.49377441	1.41176474
718.49792480	1.39215684
718.49792480	1.50980389
718.50189209	1.49019611
718.50598145	1.43137252
718.50988770	1.41176474
718.51434326	1.21568632
718.51434326	0.80392158
718.51824951	0.37254903
718.52233887	0.01960784
718.52661133	0.01960784
718.52661133	0.15686275
718.53051758	0.86274511
718.53460693	1.80392158
718.53869629	3.07843137
718.54284668	4.45098019
718.54284668	4.98039198
718.54687500	4.98039198
718.55102539	4.98039198
718.55511475	4.98039198
718.55511475	4.98039198
718.55920410	4.96078444
718.56329346	4.78431368
718.56738281	3.96078420
718.57147217	1.64705884
718.57562256	1.01960790
718.57995605	0.74509805
718.58374023	0.70588237
718.58374023	0.62745100
718.58795166	0.74509805
718.59204102	0.78431374
718.59631348	0.86274511
718.60009766	1.00000000
718.60418701	1.05882359
718.60839844	1.00000000
718.61254883	1.05882359
718.61254883	0.98039216
718.61651611	1.01960790
718.62078857	1.13725495
718.62475586	1.13725495
718.62915039	1.43137252
718.63305664	1.41176474
718.63696289	1.54901958
718.64111328	1.62745094
718.64111328	1.70588231
718.64556885	1.74509799
718.64935303	1.90196073
718.65332031	2.03921580
718.65747070	2.29411769
718.66168213	2.35294127
718.66571045	2.41176462
718.66986084	2.43137264
718.66986084	2.52941179
718.67388916	2.54901958
718.67797852	2.64705873
718.68231201	2.70588231
718.68627930	2.78431368
718.69024658	2.96078420
718.69433594	3.03921580
718.69854736	3.00000000
718.69854736	3.17647052
718.70257568	3.25490189
718.70672607	3.09803915
718.71075439	3.17647052
718.71075439	3.23529410
718.71484375	3.23529410
718.71899414	3.21568632
718.72302246	3.00000000
718.72711182	2.92156863
718.72711182	2.94117641
718.73138428	3.05882359
718.73541260	3.19607854
718.73944092	2.98039222
718.73944092	2.86274505
718.74346924	2.68627453
718.74774170	2.58823538
718.75177002	2.58823538
718.75585938	2.60784316
718.75585938	2.64705873
718.75982666	2.60784316
718.76434326	2.54901958
718.76818848	2.39215684
718.76818848	2.25490189
718.77221680	2.19607854
718.77630615	2.21568632
718.78045654	2.15686274
718.78454590	2.17647052
718.78454590	2.35294127
718.78857422	2.25490189
718.79278564	2.25490189
718.79687500	2.17647052
718.79687500	2.00000000
718.80090332	1.78431368
718.80499268	1.62745094
718.80932617	1.58823526
718.81323242	1.43137252
718.81323242	1.43137252
718.81726074	1.45098042
718.82128906	1.37254906
718.82543945	1.45098042
718.82543945	1.50980389
718.82965088	1.37254906
718.83374023	1.31372547
718.83770752	1.52941179
718.84185791	1.49019611
718.84185791	1.27450979
718.84631348	1.07843137
718.84991455	1.15686274
718.85418701	1.35294116
718.85418701	1.33333337
718.85827637	1.29411769
718.86248779	1.27450979
718.86633301	1.19607842
718.87048340	1.31372547
718.87048340	1.37254906
718.87463379	1.33333337
718.87890625	1.17647064
718.88287354	1.29411769
718.88287354	1.25490201
718.88677979	1.07843137
718.89093018	0.64705884
718.89544678	0.17647059
718.89929199	0.01960784
718.89929199	0.09803922
718.90325928	0.56862748
718.90740967	1.49019611
718.91149902	2.45098042
718.91149902	3.39215684
718.91558838	4.49019623
718.91967773	4.98039198
718.92370605	4.98039198
718.92797852	4.98039198
718.92797852	4.94117641
718.93218994	4.43137264
718.93634033	3.66666675
718.94036865	2.98039222
718.94036865	1.94117641
718.94427490	1.07843137
718.94848633	0.60784316
718.95245361	0.35294119
718.95654297	0.17647059
718.96069336	0.35294119
718.96472168	0.60784316
718.96881104	0.62745100
718.96881104	0.76470590
718.97302246	0.62745100
718.97692871	1.01960790
718.98107910	0.92156863
718.98522949	1.00000000
718.98931885	1.07843137
718.99334717	1.03921568
718.99768066	1.05882359
718.99768066	1.21568632
719.00183105	1.23529410
719.00573730	1.27450979
719.00982666	1.49019611
719.01397705	1.45098042
719.01794434	1.56862748
719.02209473	1.66666663
719.02624512	1.68627453
719.02624512	1.68627453
719.03027344	1.76470590
719.03436279	1.86274505
719.03845215	1.96078432
719.04260254	2.03921580
719.04675293	1.98039210
719.05072021	2.05882359
719.05499268	2.11764717
719.05499268	2.15686274
719.05895996	2.33333325
719.06317139	2.33333325
719.06719971	2.39215684
719.07128906	2.47058821
719.07531738	2.47058821
719.07965088	2.66666675
719.08355713	2.60784316
719.08355713	2.50980401
719.08764648	2.43137264
719.09167480	2.50980401
719.09594727	2.43137264
719.09594727	2.33333325
719.09985352	2.52941179
719.10400391	2.39215684
719.10809326	2.23529410
719.11230469	2.21568632
719.11230469	2.07843137
719.11627197	2.01960778
719.12030029	2.07843137
719.12475586	1.98039210
719.12475586	1.94117641
719.12878418	1.92156863
719.13275146	1.90196073
719.13671875	1.94117641
719.14080811	1.90196073
719.14080811	1.74509799
719.14532471	1.66666663
719.14910889	1.62745094
719.15325928	1.64705884
719.15325928	1.62745094
719.15722656	1.60784316
719.16137695	1.64705884
719.16552734	1.60784316
719.16955566	1.49019611
719.16955566	1.47058821
719.17370605	1.31372547
719.17773438	1.23529410
719.18188477	1.17647064
719.18188477	1.05882359
719.18597412	0.90196079
719.19012451	0.90196079
719.19409180	0.90196079
719.19830322	1.01960790
719.19830322	1.03921568
719.20233154	1.00000000
719.20635986	0.62745100
719.21051025	0.56862748
719.21051025	0.52941179
719.21459961	0.54901963
719.21868896	0.50980395
719.22277832	0.60784316
719.22680664	0.58823532
719.22680664	0.68627453
719.23095703	0.76470590
719.23510742	0.76470590
719.23919678	0.86274511
719.23919678	0.88235295
719.24322510	0.86274511
719.24755859	0.82352942
719.25170898	0.82352942
719.25561523	0.74509805
719.25561523	0.64705884
719.25970459	0.50980395
719.26385498	0.25490198
719.26788330	0.01960784
719.26788330	0.01960784
719.27197266	0.01960784
719.27600098	0.23529412
719.28009033	0.90196079
719.28417969	1.82352936
719.28417969	2.90196085
719.28845215	4.05882359
719.29248047	4.98039198
719.29656982	4.98039198
719.29656982	4.98039198
719.30084229	4.98039198
719.30474854	4.86274529
719.30889893	4.41176462
719.31323242	3.90196085
719.31323242	2.86274505
719.31701660	1.84313726
719.32116699	0.98039216
719.32525635	0.52941179
719.32525635	0.27450982
719.32940674	0.15686275
719.33337402	0.23529412
719.33752441	0.39215687
719.34155273	0.68627453
719.34570313	0.70588237
719.34967041	0.86274511
719.35382080	0.82352942
719.35382080	0.88235295
719.35791016	0.96078432
719.36230469	1.01960790
719.36621094	1.00000000
719.37017822	1.21568632
719.37457275	1.19607842
719.37872314	1.19607842
719.38275146	1.25490201
719.38275146	1.39215684
719.38677979	1.60784316
719.39068604	1.56862748
719.39532471	1.45098042
719.39904785	1.47058821
719.40295410	1.58823526
719.40716553	1.66666663
719.41131592	1.82352936
719.41131592	1.86274505
719.41540527	1.94117641
719.41931152	2.03921580
719.42346191	2.07843137
719.42761230	2.25490189
719.43176270	2.17647052
719.43591309	2.17647052
719.43994141	2.19607854
719.43994141	2.39215684
719.44409180	2.56862736
719.44830322	2.56862736
719.45227051	2.62745094
719.45227051	2.58823538
719.45623779	2.64705873
719.46032715	2.70588231
719.46447754	2.70588231
719.46862793	2.78431368
719.46862793	2.88235283
719.47271729	2.76470590
719.47674561	2.70588231
719.48089600	2.66666675
719.48089600	2.62745094
719.48492432	2.66666675
719.48907471	2.76470590
719.49310303	2.74509811
719.49725342	2.70588231
719.49725342	2.76470590
719.50128174	2.68627453
719.50549316	2.54901958
719.50988770	2.68627453
719.50988770	2.68627453
719.51373291	2.58823538
719.51776123	2.50980401
719.52185059	2.37254906
719.52600098	2.29411769
719.52600098	2.19607854
719.53015137	2.37254906
719.53411865	2.29411769
719.53826904	2.19607854
719.53826904	2.11764717
719.54241943	1.86274505
719.54638672	1.68627453
719.55047607	1.70588231
719.55462646	1.60784316
719.55462646	1.49019611
719.55877686	1.47058821
719.56286621	1.50980389
719.56726074	1.39215684
719.56726074	1.62745094
719.57092285	1.43137252
719.57513428	1.43137252
719.57928467	1.35294116
719.58319092	1.33333337
719.58319092	1.21568632
719.58740234	1.19607842
719.59155273	1.25490201
719.59570313	1.27450979
719.59570313	1.33333337
719.59973145	1.41176474
719.60369873	1.43137252
719.60791016	1.50980389
719.61224365	1.56862748
719.61224365	1.52941179
719.61608887	1.56862748
719.62011719	1.60784316
719.62420654	1.56862748
719.62420654	1.43137252
719.62841797	1.09803927
719.63250732	0.78431374
719.63653564	0.41176471
719.64068604	0.09803922
719.64068604	0.01960784
719.64471436	0.19607843
719.64892578	0.92156863
719.65307617	2.19607854
719.65307617	3.62745094
719.65692139	4.98039198
719.66107178	4.98039198
719.66522217	4.98039198
719.66931152	4.98039198
719.66931152	4.98039198
719.67327881	4.98039198
719.67742920	4.96078444
719.68157959	4.88235283
719.68157959	3.98039222
719.68572998	2.60784316
719.68988037	1.60784316
719.69409180	0.98039216
719.69824219	0.52941179
719.70220947	0.45098040
719.70611572	0.50980395
719.71020508	0.56862748
719.71020508	0.70588237
719.71447754	0.70588237
719.71844482	0.58823532
719.72259521	0.70588237
719.72674561	0.76470590
719.73077393	0.76470590
719.73486328	0.98039216
719.73889160	1.09803927
719.73889160	1.13725495
719.74298096	1.13725495
719.74707031	1.13725495
719.75115967	1.27450979
719.75531006	1.54901958
719.75958252	1.60784316
719.76354980	1.68627453
719.76763916	1.78431368
719.76763916	1.90196073
719.77166748	1.98039210
719.77581787	2.19607854
719.77996826	2.31372547
719.78399658	2.49019599
719.78808594	2.52941179
719.79223633	2.66666675
719.79620361	2.72549009
719.79620361	2.82352948
719.80035400	2.94117641
719.80450439	3.01960778
719.80853271	3.21568632
719.81292725	3.21568632
719.81665039	3.19607854
719.82110596	3.43137264
719.82495117	3.31372547
719.82495117	3.35294127
719.82904053	3.47058821
719.83319092	3.50980401
719.83721924	3.52941179
719.83721924	3.47058821
719.84130859	3.47058821
719.84558105	3.47058821
719.84942627	3.50980401
719.85369873	3.47058821
719.85369873	3.43137264
719.85772705	3.45098042
719.86199951	3.37254906
719.86602783	3.29411769
719.86602783	3.33333325
719.87005615	3.41176462
719.87408447	3.41176462
719.87835693	3.31372547
719.88244629	3.41176462
719.88244629	3.31372547
719.88653564	3.05882359
719.89050293	3.00000000
719.89465332	2.80392146
719.89465332	2.70588231
719.89874268	2.66666675
719.90270996	2.68627453
719.90686035	2.66666675
719.91094971	2.64705873
719.91094971	2.52941179
719.91510010	2.39215684
719.91925049	2.33333325
719.92321777	2.25490189
719.92321777	2.05882359
719.92736816	2.09803915
719.93157959	2.09803915
719.93560791	2.01960778
719.93981934	1.94117641
719.93981934	1.86274505
719.94396973	1.78431368
719.94812012	1.58823526
719.95220947	1.62745094
719.95220947	1.56862748
719.95593262	1.56862748
719.96008301	1.66666663
719.96441650	1.82352936
719.96832275	1.72549021
719.96832275	1.78431368
719.97247314	1.86274505
719.97644043	1.82352936
719.98077393	1.78431368
719.98077393	1.76470590
719.98474121	1.76470590
719.98883057	2.00000000
719.99279785	2.11764717
719.99707031	1.88235295
719.99707031	1.82352936
720.00115967	1.47058821
720.00518799	1.03921568
720.00933838	0.62745100
720.00933838	0.39215687
720.01354980	0.31372550
720.01757813	0.60784316
720.02160645	1.45098042
720.02569580	2.60784316
720.02569580	4.01960802
720.02984619	4.98039198
720.03387451	4.98039198
720.03802490	4.98039198
720.03802490	4.98039198
720.04211426	4.98039198
720.04608154	4.98039198
720.05029297	4.86274529
720.05432129	4.39215708
720.05432129	3.41176462
720.05859375	2.41176462
720.06286621	1.62745094
720.06671143	1.21568632
720.06671143	1.00000000
720.07067871	1.15686274
720.07513428	1.11764705
720.07946777	1.09803927
720.08300781	1.13725495
720.08300781	1.03921568
720.08709717	0.96078432
720.09118652	1.17647064
720.09564209	1.17647064
720.09564209	1.29411769
720.09948730	1.37254906
720.10345459	1.41176474
720.10760498	1.56862748
720.11187744	1.80392158
720.11590576	1.90196073
720.11981201	2.00000000
720.12402344	1.96078432
720.12402344	1.98039210
720.12811279	2.01960778
720.13220215	2.29411769
720.13623047	2.37254906
720.14062500	2.39215684
720.14447021	2.41176462
720.14868164	2.27450991
720.15270996	2.43137264
720.15270996	2.58823538
720.15679932	2.68627453
720.16082764	2.82352948
720.16510010	3.00000000
720.16906738	3.19607854
720.17309570	3.17647052
720.17724609	3.19607854
720.18133545	3.25490189
720.18133545	3.23529410
720.18542480	3.23529410
720.18945313	3.41176462
720.19366455	3.45098042
720.19769287	3.62745094
720.20208740	3.47058821
720.20581055	3.50980401
720.21002197	3.58823538
720.21002197	3.50980401
720.21411133	3.37254906
720.21820068	3.33333325
720.22235107	3.35294127
720.22637939	3.19607854
720.23052979	3.29411769
720.23455811	3.17647052
720.23870850	3.21568632
720.23870850	3.21568632
720.24273682	3.09803915
720.24682617	3.03921580
720.25097656	3.09803915
720.25097656	3.00000000
720.25512695	2.88235283
720.25903320	2.80392146
720.26330566	2.52941179
720.26739502	2.64705873
720.26739502	2.60784316
720.27154541	2.72549009
720.27557373	2.64705873
720.27996826	2.70588231
720.27996826	2.49019599
720.28375244	2.23529410
720.28790283	2.27450991
720.29211426	2.33333325
720.29614258	2.19607854
720.29614258	2.05882359
720.30010986	2.01960778
720.30426025	1.94117641
720.30834961	1.72549021
720.30834961	1.74509799
720.31280518	1.68627453
720.31652832	1.62745094
720.32080078	1.72549021
720.32476807	1.72549021
720.32476807	1.74509799
720.32922363	1.70588231
720.33288574	1.76470590
720.33697510	1.72549021
720.33697510	1.78431368
720.34106445	1.88235295
720.34539795	2.03921580
720.34936523	1.94117641
720.35351563	2.09803915
720.35351563	2.19607854
720.35754395	2.27450991
720.36212158	2.43137264
720.36578369	2.15686274
720.36578369	2.19607854
720.36968994	2.11764717
720.37390137	1.86274505
720.37799072	1.60784316
720.38214111	1.29411769
720.38214111	0.86274511
720.38616943	0.66666669
720.39044189	0.68627453
720.39447021	1.17647064
720.39447021	1.98039210
720.39849854	3.07843137
720.40246582	4.01960802
720.40673828	4.98039198
720.41076660	4.98039198
720.41076660	4.98039198
720.41491699	4.98039198
720.41900635	4.96078444
720.42297363	4.66666651
720.42297363	4.11764717
720.42712402	3.47058821
720.43121338	2.64705873
720.43530273	1.82352936
720.43957520	1.50980389
720.43957520	1.43137252
720.44348145	1.15686274
720.44769287	1.13725495
720.45184326	1.25490201
720.45184326	1.37254906
720.45593262	1.41176474
720.45989990	1.62745094
720.46398926	1.78431368
720.46807861	1.82352936
720.46807861	1.78431368
720.47216797	1.78431368
720.47619629	1.68627453
720.48040771	1.84313726
720.48040771	1.82352936
720.48443604	1.92156863
720.48864746	1.98039210
720.49273682	2.07843137
720.49670410	2.09803915
720.50079346	2.27450991
720.50494385	2.23529410
720.50903320	2.31372547
720.50903320	2.35294127
720.51318359	2.37254906
720.51721191	2.41176462
720.52154541	2.52941179
720.52551270	2.52941179
720.52972412	2.58823538
720.53369141	2.64705873
720.53771973	2.68627453
720.53771973	2.70588231
720.54193115	2.96078420
720.54583740	2.98039222
720.55004883	3.09803915
720.55407715	3.21568632
720.55822754	3.29411769
720.56243896	3.23529410
720.56640625	3.23529410
720.56640625	3.23529410
720.57049561	3.43137264
720.57458496	3.43137264
720.57910156	3.39215684
720.58294678	3.31372547
720.58685303	3.27450991
720.59100342	3.31372547
720.59527588	3.17647052
720.59527588	3.05882359
720.59912109	3.01960778
720.60321045	3.01960778
720.60729980	2.90196085
720.61169434	2.86274505
720.61566162	2.80392146
720.61968994	2.80392146
720.62371826	3.01960778
720.62371826	2.88235283
720.62780762	2.78431368
720.63201904	2.76470590
720.63592529	2.62745094
720.63592529	2.54901958
720.64013672	2.64705873
720.64447021	2.64705873
720.64837646	2.64705873
720.65252686	2.68627453
720.65252686	2.62745094
720.65643311	2.56862736
720.66052246	2.58823538
720.66479492	2.43137264
720.66479492	2.27450991
720.66894531	2.35294127
720.67285156	2.23529410
720.67694092	2.17647052
720.68121338	2.09803915
720.68121338	2.05882359
720.68518066	2.01960778
720.68927002	2.01960778
720.69335938	2.09803915
720.69335938	2.09803915
720.69757080	2.25490189
720.70166016	2.27450991
720.70599365	2.25490189
720.70996094	2.37254906
720.70996094	2.33333325
720.71386719	2.45098042
720.71795654	2.37254906
720.72204590	2.50980401
720.72204590	2.43137264
720.72613525	2.33333325
720.73034668	2.43137264
720.73437500	2.39215684
720.73852539	2.45098042
720.73852539	2.52941179
720.74255371	2.62745094
720.74670410	2.50980401
720.75073242	2.31372547
720.75073242	2.07843137
720.75482178	1.72549021
720.75903320	1.52941179
720.76312256	1.25490201
720.76708984	1.17647064
720.76708984	1.62745094
720.77142334	2.70588231
720.77545166	3.80392146
720.77947998	4.98039198
720.77947998	4.98039198
720.78344727	4.98039198
720.78771973	4.98039198
720.79174805	4.98039198
720.79602051	4.98039198
720.79602051	4.94117641
720.79992676	4.80392170
720.80401611	4.25490189
720.80816650	3.21568632
720.80816650	2.25490189
720.81231689	1.64705884
720.81628418	1.29411769
720.82043457	1.29411769
720.82446289	1.37254906
720.82446289	1.39215684
720.82879639	1.49019611
720.83288574	1.41176474
720.83673096	1.43137252
720.83673096	1.45098042
720.84088135	1.49019611
720.84497070	1.54901958
720.84912109	1.56862748
720.85314941	1.64705884
720.85717773	1.74509799
720.86132813	1.76470590
720.86547852	1.88235295
720.86547852	1.94117641
720.86956787	1.98039210
720.87359619	1.98039210
720.87774658	2.13725495
720.88220215	2.43137264
720.88586426	2.50980401
720.88995361	2.49019599
720.89416504	2.50980401
720.89416504	2.62745094
720.89831543	2.78431368
720.90222168	2.82352948
720.90643311	2.78431368
720.91046143	2.88235283
720.91461182	2.94117641
720.91876221	2.98039222
720.92279053	3.13725495
720.92279053	3.03921580
720.92687988	3.01960778
720.93103027	3.13725495
720.93511963	3.23529410
720.93908691	3.45098042
720.94317627	3.50980401
720.94750977	3.43137264
720.95153809	3.56862736
720.95153809	3.60784316
720.95568848	3.66666675
720.95977783	3.70588231
720.96380615	3.58823538
720.96783447	3.54901958
720.97204590	3.62745094
720.97595215	3.66666675
720.98010254	3.74509811
720.98010254	3.56862736
720.98431396	3.41176462
720.98840332	3.33333325
720.99249268	3.41176462
720.99249268	3.54901958
720.99658203	3.52941179
721.00067139	3.54901958
721.00469971	3.33333325
721.00891113	3.13725495
721.00891113	3.17647052
721.01312256	3.01960778
721.01702881	3.05882359
721.02117920	3.03921580
721.02117920	2.96078420
721.02514648	2.88235283
721.02954102	2.74509811
721.03338623	2.74509811
721.03753662	2.60784316
721.03753662	2.68627453
721.04162598	2.56862736
721.04583740	2.35294127
721.04974365	2.17647052
721.04974365	2.13725495
721.05389404	2.07843137
721.05798340	2.00000000
721.06225586	2.00000000
721.06616211	1.98039210
721.06616211	2.13725495
721.07019043	2.11764717
721.07440186	1.88235295
721.07879639	1.94117641
721.07879639	2.03921580
721.08251953	2.00000000
721.08679199	2.00000000
721.09082031	2.00000000
721.09503174	2.03921580
721.09503174	2.09803915
721.09899902	2.11764717
721.10296631	2.11764717
721.10723877	2.09803915
721.10723877	2.01960778
721.11120605	2.09803915
721.11541748	1.92156863
721.11932373	1.86274505
721.12347412	1.66666663
721.12347412	1.21568632
721.12762451	0.76470590
721.13171387	0.54901963
721.13592529	0.41176471
721.13592529	0.74509805
721.14019775	1.60784316
721.14440918	2.92156863
721.14837646	4.39215708
721.15228271	4.98039198
721.15228271	4.98039198
721.15631104	4.98039198
721.16040039	4.98039198
721.16455078	4.98039198
721.16455078	4.98039198
721.16857910	4.98039198
721.17279053	4.86274529
721.17681885	4.09803915
721.18109131	2.98039222
721.18109131	1.92156863
721.18499756	1.35294116
721.18896484	1.01960790
721.19305420	0.92156863
721.19305420	0.84313726
721.19720459	0.86274511
721.20135498	0.92156863
721.20550537	0.90196079
721.20953369	0.96078432
721.20953369	1.11764705
721.21368408	1.19607842
721.21771240	1.43137252
721.22186279	1.43137252
721.22186279	1.29411769
721.22583008	1.31372547
721.23010254	1.41176474
721.23406982	1.43137252
721.23822021	1.52941179
721.24224854	1.66666663
721.24633789	1.76470590
721.25048828	1.82352936
721.25048828	1.98039210
721.25482178	2.09803915
721.25872803	2.21568632
721.26300049	2.29411769
721.26684570	2.31372547
721.27099609	2.50980401
721.27514648	2.54901958
721.27935791	2.64705873
721.27935791	2.62745094
721.28326416	2.68627453
721.28735352	2.82352948
721.29144287	2.94117641
721.29571533	2.96078420
721.30017090	3.09803915
721.30371094	3.11764717
721.30786133	3.25490189
721.30786133	3.31372547
721.31225586	3.35294127
721.31597900	3.39215684
721.32012939	3.50980401
721.32427979	3.45098042
721.32855225	3.41176462
721.33239746	3.39215684
721.33666992	3.25490189
721.33666992	3.31372547
721.34088135	3.50980401
721.34472656	3.56862736
721.34887695	3.35294127
721.35284424	3.11764717
721.35705566	3.25490189
721.36114502	3.27450991
721.36529541	3.07843137
721.36529541	2.96078420
721.36920166	2.98039222
721.37335205	2.92156863
721.37750244	2.82352948
721.37750244	2.74509811
721.38165283	2.74509811
721.38598633	2.62745094
721.38977051	2.50980401
721.39392090	2.56862736
721.39392090	2.58823538
721.39794922	2.68627453
721.40203857	2.68627453
721.40618896	2.52941179
721.40618896	2.43137264
721.41033936	2.31372547
721.41436768	2.15686274
721.41845703	2.09803915
721.42242432	2.07843137
721.42242432	1.82352936
721.42675781	1.80392158
721.43084717	1.84313726
721.43493652	1.80392158
721.43493652	1.62745094
721.43884277	1.68627453
721.44293213	1.62745094
721.44714355	1.43137252
721.45129395	1.50980389
721.45129395	1.58823526
721.45556641	1.64705884
721.45953369	1.78431368
721.46362305	1.92156863
721.46362305	1.80392158
721.46777344	1.76470590
721.47192383	1.72549021
721.47576904	1.72549021
721.48004150	1.72549021
721.48004150	1.88235295
721.48394775	1.88235295
721.48815918	1.74509799
721.49224854	1.70588231
721.49224854	1.47058821
721.49621582	1.13725495
721.50042725	0.82352942
721.50451660	0.49019608
721.50854492	0.13725491
721.50854492	0.31372550
721.51300049	0.84313726
721.51678467	1.66666663
721.52081299	2.82352948
721.52081299	4.11764717
721.52496338	4.98039198
721.52923584	4.98039198
721.53326416	4.98039198
721.53723145	4.98039198
721.53723145	4.98039198
721.54138184	4.90196085
721.54541016	4.66666651
721.54956055	4.03921556
721.54956055	2.86274505
721.55377197	1.68627453
721.55773926	1.17647064
721.56201172	1.00000000
721.56591797	0.86274511
721.56591797	0.92156863
721.57000732	0.92156863
721.57409668	1.01960790
721.57830811	1.13725495
721.57830811	1.33333337
721.58227539	1.25490201
721.58636475	1.11764705
721.59045410	1.19607842
721.59472656	1.19607842
721.59472656	1.13725495
721.59881592	1.23529410
721.60272217	1.35294116
721.60681152	1.39215684
721.60681152	1.49019611
721.61102295	1.68627453
721.61511230	1.74509799
721.61901855	1.82352936
721.62335205	1.98039210
721.62731934	2.00000000
721.63146973	2.15686274
721.63562012	2.19607854
721.63562012	2.15686274
721.63970947	2.23529410
721.64379883	2.29411769
721.64794922	2.33333325
721.65222168	2.54901958
721.65600586	2.58823538
721.66015625	2.68627453
721.66430664	2.74509811
721.66430664	2.78431368
721.66833496	2.82352948
721.67236328	2.92156863
721.67657471	3.03921580
721.68060303	3.11764717
721.68469238	3.15686274
721.68878174	3.09803915
721.69281006	3.23529410
721.69281006	3.15686274
721.69702148	3.23529410
721.70117188	3.21568632
721.70526123	3.21568632
721.70922852	3.03921580
721.71350098	3.03921580
721.71771240	3.05882359
721.72167969	3.13725495
721.72167969	2.90196085
721.72570801	2.76470590
721.72985840	2.64705873
721.73382568	2.54901958
721.73797607	2.58823538
721.74194336	2.60784316
721.74609375	2.62745094
721.75024414	2.60784316
721.75024414	2.64705873
721.75439453	2.50980401
721.75854492	2.39215684
721.76263428	2.31372547
721.76263428	2.21568632
721.76672363	2.29411769
721.77069092	2.39215684
721.77496338	2.33333325
721.77929688	2.27450991
721.77929688	2.15686274
721.78308105	1.98039210
721.78710938	1.88235295
721.79119873	1.84313726
721.79119873	1.84313726
721.79565430	1.74509799
721.79937744	1.60784316
721.80346680	1.35294116
721.80773926	1.47058821
721.80773926	1.45098042
721.81188965	1.49019611
721.81579590	1.37254906
721.81982422	1.41176474
721.81982422	1.54901958
721.82397461	1.66666663
721.82812500	1.54901958
721.83209229	1.47058821
721.83624268	1.35294116
721.83624268	1.27450979
721.84057617	1.33333337
721.84466553	1.45098042
721.84857178	1.56862748
721.84857178	1.62745094
721.85272217	1.60784316
721.85681152	1.64705884
721.86090088	1.68627453
721.86505127	1.76470590
721.86505127	1.72549021
721.86895752	1.68627453
721.87322998	1.35294116
721.87731934	1.01960790
721.87731934	0.78431374
721.88134766	0.50980395
721.88537598	0.49019608
721.88952637	0.78431374
721.89373779	1.49019611
721.89373779	2.37254906
721.89782715	3.39215684
721.90179443	4.39215708
721.90594482	4.98039198
721.90594482	4.98039198
721.90997314	4.98039198
721.91412354	4.96078444
721.91815186	4.66666651
721.92236328	4.07843161
721.92236328	3.43137264
721.92639160	2.41176462
721.93054199	1.62745094
721.93457031	1.07843137
721.93457031	0.88235295
721.93865967	0.76470590
721.94268799	0.80392158
721.94683838	0.78431374
721.95098877	0.80392158
721.95098877	0.88235295
721.95513916	0.96078432
721.95910645	1.13725495
721.96331787	1.23529410
721.96331787	1.33333337
721.96734619	1.39215684
721.97149658	1.45098042
721.97546387	1.43137252
721.97991943	1.47058821
721.97991943	1.52941179
721.98376465	1.52941179
721.98791504	1.56862748
721.99200439	1.68627453
721.99200439	1.66666663
721.99597168	1.70588231
722.00012207	1.74509799
722.00421143	1.74509799
722.00842285	1.98039210
722.01263428	2.03921580
722.01647949	2.09803915
722.02099609	2.29411769
722.02099609	2.37254906
722.02484131	2.35294127
722.02886963	2.41176462
722.03302002	2.54901958
722.03698730	2.64705873
722.04107666	2.72549009
722.04528809	2.76470590
722.04925537	2.72549009
722.04925537	2.90196085
722.05334473	2.96078420
722.05743408	2.98039222
722.06158447	3.01960778
722.06573486	2.96078420
722.06976318	2.94117641
722.07385254	2.92156863
722.07800293	2.92156863
722.07800293	3.01960778
722.08203125	3.11764717
722.08605957	3.07843137
722.09020996	2.96078420
722.09454346	2.82352948
722.09869385	2.82352948
722.10247803	2.76470590
722.10675049	2.74509811
722.10675049	2.82352948
722.11065674	2.84313726
722.11486816	2.70588231
722.11901855	2.64705873
722.11901855	2.60784316
722.12316895	2.60784316
722.12713623	2.52941179
722.13122559	2.47058821
722.13537598	2.35294127
722.13537598	2.27450991
722.13934326	2.29411769
722.14343262	2.35294127
722.14758301	2.39215684
722.14758301	2.50980401
722.15173340	2.39215684
722.15570068	2.25490189
722.16009521	2.29411769
722.16400146	2.15686274
722.16400146	2.00000000
722.16815186	1.86274505
722.17205811	1.82352936
722.17633057	1.78431368
722.17633057	1.74509799
722.18048096	1.90196073
722.18444824	1.86274505
722.18859863	1.86274505
722.19274902	1.76470590
722.19274902	1.64705884
722.19671631	1.66666663
722.20086670	1.76470590
722.20495605	1.70588231
722.20495605	1.68627453
722.20898438	1.78431368
722.21313477	1.82352936
722.21746826	1.82352936
722.22161865	1.86274505
722.22161865	1.86274505
722.22534180	1.78431368
722.22955322	1.78431368
722.23370361	1.66666663
722.23370361	1.64705884
722.23773193	1.60784316
722.24176025	1.72549021
722.24597168	1.54901958
722.25000000	1.25490201
722.25000000	0.96078432
722.25408936	0.78431374
722.25817871	0.45098040
722.26251221	0.39215687
722.26251221	0.62745100
722.26629639	1.29411769
722.27044678	2.62745094
722.27453613	3.80392146
722.27923584	4.98039198
722.27923584	4.98039198
722.28295898	4.98039198
722.28686523	4.98039198
722.29101563	4.98039198
722.29101563	4.98039198
722.29522705	4.78431368
722.29913330	4.31372547
722.30328369	3.35294127
722.30737305	2.25490189
722.30737305	1.43137252
722.31146240	0.94117647
722.31549072	0.76470590
722.31970215	0.60784316
722.31970215	0.70588237
722.32373047	0.86274511
722.32781982	1.03921568
722.33190918	1.05882359
722.33605957	0.96078432
722.33605957	1.00000000
722.34014893	1.01960790
722.34429932	1.01960790
722.34851074	1.15686274
722.34851074	1.17647064
722.35235596	1.29411769
722.35644531	1.33333337
722.36065674	1.31372547
722.36480713	1.43137252
722.36871338	1.52941179
722.37286377	1.62745094
722.37707520	1.60784316
722.37707520	1.68627453
722.38110352	1.86274505
722.38525391	2.00000000
722.38922119	2.13725495
722.39343262	2.07843137
722.39752197	2.11764717
722.40155029	2.19607854
722.40570068	2.29411769
722.40570068	2.35294127
722.40997314	2.41176462
722.41394043	2.49019599
722.41802979	2.54901958
722.42205811	2.80392146
722.42608643	3.01960778
722.43035889	3.03921580
722.43432617	3.00000000
722.43432617	2.98039222
722.43859863	3.13725495
722.44256592	3.05882359
722.44671631	3.11764717
722.45080566	3.29411769
722.45483398	3.31372547
722.45880127	3.33333325
722.46301270	3.33333325
722.46301270	3.35294127
722.46728516	3.23529410
722.47149658	3.27450991
722.47534180	3.23529410
722.47961426	3.21568632
722.48352051	3.17647052
722.48760986	3.17647052
722.49169922	3.27450991
722.49169922	3.31372547
722.49584961	3.31372547
722.49987793	3.25490189
722.50396729	3.17647052
722.50396729	2.96078420
722.50811768	2.90196085
722.51220703	2.82352948
722.51629639	2.80392146
722.52032471	2.84313726
722.52032471	2.90196085
722.52447510	2.70588231
722.52856445	2.66666675
722.53277588	2.66666675
722.53277588	2.52941179
722.53698730	2.43137264
722.54113770	2.27450991
722.54516602	2.03921580
722.54925537	2.00000000
722.54925537	1.96078432
722.55334473	1.94117641
722.55743408	1.88235295
722.56158447	1.86274505
722.56158447	1.88235295
722.56561279	1.74509799
722.56976318	1.80392158
722.57391357	1.72549021
722.57800293	1.74509799
722.57800293	1.80392158
722.58197021	1.94117641
722.58612061	1.80392158
722.59002686	1.80392158
722.59002686	1.88235295
722.59411621	1.90196073
722.59820557	2.05882359
722.60217285	2.07843137
722.60632324	2.03921580
722.60632324	2.00000000
722.61047363	2.03921580
722.61462402	1.98039210
722.61871338	1.74509799
722.61871338	1.43137252
722.62268066	0.90196079
722.62677002	0.41176471
722.63110352	0.27450982
722.63507080	0.27450982
722.63507080	0.80392158
722.63909912	1.76470590
722.64343262	3.13725495
722.64758301	4.66666651
722.64758301	4.98039198
722.65173340	4.98039198
722.65551758	4.98039198
722.65972900	4.98039198
722.66381836	4.98039198
722.66381836	4.98039198
722.66796875	4.98039198
722.67193604	4.84313726
722.67596436	3.78431368
722.67596436	2.56862736
722.68011475	1.58823526
722.68420410	1.03921568
722.68835449	0.88235295
722.69232178	0.84313726
722.69232178	0.84313726
722.69647217	1.01960790
722.70062256	1.23529410
722.70477295	0.98039216
722.70477295	0.92156863
722.70892334	0.88235295
722.71307373	0.90196079
722.71710205	0.82352942
722.72113037	0.96078432
722.72509766	1.11764705
722.72930908	1.19607842
722.73345947	1.29411769
722.73345947	1.29411769
722.73742676	1.50980389
722.74157715	1.64705884
722.74597168	1.68627453
722.74981689	2.00000000
722.75384521	2.01960778
722.75793457	2.11764717
722.76232910	2.33333325
722.76232910	2.41176462
722.76611328	2.43137264
722.77026367	2.56862736
722.77453613	2.64705873
722.77874756	2.80392146
722.78259277	2.78431368
722.78662109	2.72549009
722.79064941	2.84313726
722.79064941	2.94117641
722.79504395	3.23529410
722.79888916	3.23529410
722.80297852	3.11764717
722.80706787	3.11764717
722.81121826	3.27450991
722.81524658	3.33333325
722.81933594	3.45098042
722.81933594	3.49019599
722.82348633	3.43137264
722.82763672	3.43137264
722.83197021	3.43137264
722.83575439	3.31372547
722.84002686	3.27450991
722.84399414	3.17647052
722.84814453	3.09803915
722.84814453	3.23529410
722.85205078	3.31372547
722.85620117	3.25490189
722.86035156	3.27450991
722.86450195	3.17647052
722.86846924	3.11764717
722.87274170	3.09803915
722.87670898	2.98039222
722.87670898	2.90196085
722.88079834	2.86274505
722.88500977	2.84313726
722.88897705	2.72549009
722.88897705	2.78431368
722.89312744	2.84313726
722.89733887	2.78431368
722.90155029	2.80392146
722.90545654	2.68627453
722.90545654	2.49019599
722.90954590	2.47058821
722.91363525	2.27450991
722.91778564	2.15686274
722.91778564	2.05882359
722.92169189	1.96078432
722.92590332	1.78431368
722.92999268	1.84313726
722.93414307	1.92156863
722.93414307	1.84313726
722.93835449	1.86274505
722.94226074	1.88235295
722.94647217	1.82352936
722.94647217	1.76470590
722.95043945	1.80392158
722.95465088	1.80392158
722.95880127	2.03921580
722.96301270	2.19607854
722.96301270	1.98039210
722.96691895	1.90196073
722.97106934	1.90196073
722.97534180	1.94117641
722.97534180	1.90196073
722.97912598	2.03921580
722.98327637	1.92156863
722.98742676	2.03921580
722.99145508	2.03921580
722.99145508	1.94117641
722.99560547	1.70588231
722.99963379	1.45098042
723.00372314	1.15686274
723.00372314	0.78431374
723.00781250	0.62745100
723.01214600	0.96078432
723.01599121	1.70588231
723.02008057	2.78431368
723.02008057	4.01960802
723.02429199	4.98039198
723.02844238	4.98039198
723.03259277	4.98039198
723.03259277	4.98039198
723.03643799	4.98039198
723.04058838	4.96078444
723.04473877	4.82352924
723.04882813	4.23529434
723.04882813	3.47058821
723.05285645	2.25490189
723.05694580	1.39215684
723.06115723	1.15686274
723.06115723	0.90196079
723.06512451	0.94117647
723.06921387	1.05882359
723.07348633	1.21568632
723.07751465	1.35294116
723.07751465	1.47058821
723.08154297	1.49019611
723.08569336	1.41176474
723.08978271	1.41176474
723.08978271	1.50980389
723.09405518	1.43137252
723.09808350	1.52941179
723.10198975	1.64705884
723.10607910	1.60784316
723.10607910	1.66666663
723.11022949	1.78431368
723.11444092	1.74509799
723.11853027	1.92156863
723.11853027	1.96078432
723.12243652	2.11764717
723.12658691	2.19607854
723.13085938	2.23529410
723.13482666	2.23529410
723.13885498	2.35294127
723.14300537	2.47058821
723.14715576	2.54901958
723.14715576	2.58823538
723.15124512	2.62745094
723.15533447	2.64705873
723.15954590	2.76470590
723.16357422	2.94117641
723.16760254	2.96078420
723.17169189	3.13725495
723.17572021	3.17647052
723.17572021	3.19607854
723.18005371	3.41176462
723.18395996	3.39215684
723.18811035	3.29411769
723.19213867	3.47058821
723.19628906	3.39215684
723.20037842	3.37254906
723.20446777	3.31372547
723.20446777	3.39215684
723.20849609	3.58823538
723.21301270	3.41176462
723.21679688	3.19607854
723.22113037	2.84313726
723.22485352	2.74509811
723.22912598	2.68627453
723.23309326	2.64705873
723.23309326	2.54901958
723.23748779	2.52941179
723.24145508	2.43137264
723.24554443	2.39215684
723.24951172	2.21568632
723.25366211	2.17647052
723.25769043	2.13725495
723.26202393	2.11764717
723.26202393	2.13725495
723.26586914	2.07843137
723.26995850	2.15686274
723.27416992	2.13725495
723.27416992	2.17647052
723.27838135	2.19607854
723.28247070	2.05882359
723.28631592	1.82352936
723.29052734	1.70588231
723.29052734	1.66666663
723.29455566	1.50980389
723.29876709	1.43137252
723.30267334	1.41176474
723.30267334	1.33333337
723.30682373	1.29411769
723.31097412	1.39215684
723.31500244	1.25490201
723.31909180	1.27450979
723.31909180	1.25490201
723.32318115	1.17647064
723.32739258	1.11764705
723.33148193	1.11764705
723.33148193	1.13725495
723.33551025	1.21568632
723.33984375	1.33333337
723.34393311	1.39215684
723.34783936	1.35294116
723.34783936	1.35294116
723.35186768	1.39215684
723.35595703	1.39215684
723.36004639	1.37254906
723.36004639	1.35294116
723.36450195	1.31372547
723.36834717	1.33333337
723.37231445	1.27450979
723.37646484	0.96078432
723.37646484	0.66666669
723.38061523	0.31372550
723.38470459	0.03921569
723.38873291	0.01960784
723.38873291	0.35294119
723.39288330	1.07843137
723.39697266	2.11764717
723.40112305	3.17647052
723.40509033	4.21568632
723.40509033	4.98039198
723.40954590	4.98039198
723.41345215	4.98039198
723.41748047	4.94117641
723.41748047	4.64705896
723.42144775	4.05882359
723.42578125	3.25490189
723.42999268	2.31372547
723.43389893	1.43137252
723.43389893	0.82352942
723.43792725	0.52941179
723.44201660	0.37254903
723.44635010	0.31372550
723.44635010	0.50980395
723.45031738	0.58823532
723.45440674	0.62745100
723.45843506	0.76470590
723.46270752	0.84313726
723.46270752	0.70588237
723.46661377	0.70588237
723.47082520	0.80392158
723.47491455	0.96078432
723.47491455	1.05882359
723.47906494	1.13725495
723.48303223	1.11764705
723.48712158	1.11764705
723.49139404	1.31372547
723.49548340	1.33333337
723.49938965	1.39215684
723.50341797	1.50980389
723.50341797	1.60784316
723.50762939	1.66666663
723.51196289	1.80392158
723.51574707	1.84313726
723.51989746	2.09803915
723.52404785	2.15686274
723.52807617	2.25490189
723.53210449	2.45098042
723.53210449	2.43137264
723.53643799	2.56862736
723.54095459	2.76470590
723.54449463	2.74509811
723.54876709	2.86274505
723.55291748	2.94117641
723.55694580	3.00000000
723.56109619	3.21568632
723.56109619	3.27450991
723.56530762	3.27450991
723.56921387	3.23529410
723.57354736	3.31372547
723.57745361	3.33333325
723.58160400	3.33333325
723.58557129	3.29411769
723.58947754	3.17647052
723.58947754	3.13725495
723.59375000	3.00000000
723.59777832	2.92156863
723.60174561	3.03921580
723.60589600	3.00000000
723.60998535	2.98039222
723.61413574	2.88235283
723.61822510	2.80392146
723.61822510	2.72549009
723.62219238	2.74509811
723.62634277	2.66666675
723.63055420	2.50980401
723.63055420	2.58823538
723.63464355	2.50980401
723.63873291	2.54901958
723.64270020	2.50980401
723.64703369	2.50980401
723.64703369	2.45098042
723.65100098	2.49019599
723.65496826	2.39215684
723.65911865	2.33333325
723.65911865	2.25490189
723.66333008	2.09803915
723.66760254	1.94117641
723.67150879	1.84313726
723.67547607	1.74509799
723.67547607	1.76470590
723.67956543	1.84313726
723.68371582	1.66666663
723.68780518	1.49019611
723.68780518	1.49019611
723.69189453	1.56862748
723.69622803	1.50980389
723.70019531	1.47058821
723.70422363	1.56862748
723.70422363	1.72549021
723.70825195	1.70588231
723.71282959	1.80392158
723.71649170	1.72549021
723.71649170	1.76470590
723.72064209	1.84313726
723.72473145	1.96078432
723.72882080	1.94117641
723.73291016	2.00000000
723.73291016	1.86274505
723.73699951	1.88235295
723.74108887	1.94117641
723.74548340	1.94117641
723.74548340	1.72549021
723.74932861	1.35294116
723.75335693	0.88235295
723.75750732	0.62745100
723.76171875	0.58823532
723.76171875	0.88235295
723.76586914	1.45098042
723.76971436	2.39215684
723.77386475	3.66666675
723.77386475	4.94117641
723.77807617	4.98039198
723.78210449	4.98039198
723.78613281	4.98039198
723.79028320	4.98039198
723.79028320	4.98039198
723.79443359	4.98039198
723.79840088	4.82352924
723.80242920	4.37254906
723.80242920	3.29411769
723.80664063	1.96078432
723.81079102	1.27450979
723.81469727	0.90196079
723.81890869	0.82352942
723.81890869	0.86274511
723.82299805	0.96078432
723.82702637	0.88235295
723.83123779	0.92156863
723.83123779	1.00000000
723.83544922	1.03921568
723.83941650	1.11764705
723.84356689	1.19607842
723.84771729	1.13725495
723.84771729	1.27450979
723.85168457	1.35294116
723.85589600	1.45098042
723.85992432	1.52941179
723.85992432	1.66666663
723.86407471	1.76470590
723.86798096	1.76470590
723.87207031	2.00000000
723.87615967	2.19607854
723.88043213	2.29411769
723.88464355	2.29411769
723.88848877	2.33333325
723.88848877	2.39215684
723.89257813	2.56862736
723.89703369	2.66666675
723.90087891	2.78431368
723.90484619	2.66666675
723.90899658	2.76470590
723.91333008	2.82352948
723.91723633	2.88235283
723.91723633	2.94117641
723.92138672	3.01960778
723.92529297	3.07843137
723.92944336	3.09803915
723.93365479	3.25490189
723.93768311	3.29411769
723.94171143	3.47058821
723.94610596	3.41176462
723.94610596	3.41176462
723.95001221	3.49019599
723.95410156	3.43137264
723.95837402	3.50980401
723.96246338	3.52941179
723.96643066	3.45098042
723.97052002	3.43137264
723.97454834	3.50980401
723.97454834	3.56862736
723.97888184	3.60784316
723.98278809	3.58823538
723.98687744	3.50980401
723.99096680	3.47058821
723.99517822	3.56862736
723.99914551	3.50980401
724.00317383	3.41176462
724.00317383	3.19607854
724.00732422	3.09803915
724.01141357	3.05882359
724.01568604	3.03921580
724.01568604	2.96078420
724.01965332	3.00000000
724.02392578	2.98039222
724.02807617	2.94117641
724.03192139	2.90196085
724.03192139	2.86274505
724.03601074	2.82352948
724.04010010	2.78431368
724.04425049	2.62745094
724.04425049	2.47058821
724.04821777	2.45098042
724.05236816	2.39215684
724.05645752	2.29411769
724.06054688	2.17647052
724.06054688	2.13725495
724.06469727	2.13725495
724.06872559	1.98039210
724.07287598	2.07843137
724.07287598	2.03921580
724.07702637	2.13725495
724.08111572	2.05882359
724.08514404	2.03921580
724.08947754	2.11764717
724.08947754	2.19607854
724.09368896	2.19607854
724.09747314	2.31372547
724.10162354	2.29411769
724.10162354	2.23529410
724.10571289	2.17647052
724.10974121	2.25490189
724.11395264	2.37254906
724.11804199	2.27450991
724.11804199	2.05882359
724.12194824	1.84313726
724.12609863	1.49019611
724.13018799	1.05882359
724.13018799	0.88235295
724.13427734	0.80392158
724.13836670	1.00000000
724.14251709	1.82352936
724.14660645	3.01960778
724.14660645	4.39215708
724.15069580	4.98039198
724.15490723	4.98039198
724.15887451	4.98039198
724.15887451	4.98039198
724.16308594	4.98039198
724.16717529	4.98039198
724.17132568	4.98039198
724.17523193	4.92156839
724.17523193	4.23529434
724.17938232	3.11764717
724.18359375	1.96078432
724.18774414	1.33333337
724.18774414	1.09803927
724.19171143	1.07843137
724.19598389	1.05882359
724.19989014	1.17647064
724.20404053	1.27450979
724.20404053	1.19607842
724.20794678	1.17647064
724.21276855	1.17647064
724.21624756	1.21568632
724.21624756	1.25490201
724.22045898	1.37254906
724.22448730	1.41176474
724.22851563	1.43137252
724.23272705	1.58823526
724.23272705	1.54901958
724.23675537	1.62745094
724.24084473	1.66666663
724.24536133	1.80392158
724.24536133	1.92156863
724.24902344	2.11764717
724.25311279	2.13725495
724.25732422	2.17647052
724.26147461	2.50980401
724.26538086	2.62745094
724.26947021	2.66666675
724.27362061	2.62745094
724.27362061	2.66666675
724.27801514	2.76470590
724.28173828	2.96078420
724.28588867	3.03921580
724.28997803	3.23529410
724.29412842	3.17647052
724.29815674	3.11764717
724.30224609	3.27450991
724.30224609	3.29411769
724.30633545	3.43137264
724.31048584	3.43137264
724.31463623	3.52941179
724.31872559	3.60784316
724.32275391	3.60784316
724.32690430	3.60784316
724.33099365	3.72549009
724.33099365	3.68627453
724.33502197	3.64705873
724.33923340	3.54901958
724.34356689	3.50980401
724.34741211	3.50980401
724.35156250	3.52941179
724.35546875	3.35294127
724.35992432	3.29411769
724.35992432	3.37254906
724.36389160	3.33333325
724.36798096	3.33333325
724.37182617	3.31372547
724.37597656	3.31372547
724.38012695	3.11764717
724.38421631	2.92156863
724.38830566	2.76470590
724.38830566	2.74509811
724.39245605	2.84313726
724.39654541	2.84313726
724.40057373	2.72549009
724.40057373	2.64705873
724.40490723	2.68627453
724.40881348	2.60784316
724.41290283	2.66666675
724.41699219	2.54901958
724.41699219	2.43137264
724.42108154	2.37254906
724.42510986	2.19607854
724.42926025	2.01960778
724.42926025	1.92156863
724.43334961	1.76470590
724.43762207	1.80392158
724.44146729	1.78431368
724.44610596	1.80392158
724.44610596	1.86274505
724.44970703	1.94117641
724.45391846	1.86274505
724.45800781	1.78431368
724.45800781	1.78431368
724.46221924	1.88235295
724.46618652	1.82352936
724.47021484	1.92156863
724.47436523	1.88235295
724.47436523	1.66666663
724.47839355	1.52941179
724.48248291	1.60784316
724.48657227	1.66666663
724.48657227	1.72549021
724.49072266	1.68627453
724.49468994	1.54901958
724.49884033	1.31372547
724.50305176	1.43137252
724.50305176	1.21568632
724.50714111	1.00000000
724.51110840	0.92156863
724.51531982	0.74509805
724.51531982	0.82352942
724.51959229	1.43137252
724.52349854	2.35294127
724.52777100	3.29411769
724.53198242	4.37254906
724.53198242	4.98039198
724.53601074	4.98039198
724.53991699	4.98039198
724.54400635	4.98039198
724.54400635	4.90196085
724.54803467	4.47058821
724.55206299	3.90196085
724.55627441	3.07843137
724.56036377	2.21568632
724.56036377	1.58823526
724.56445313	1.31372547
724.56872559	1.00000000
724.57275391	0.98039216
724.57275391	1.13725495
724.57672119	1.13725495
724.58087158	1.23529410
724.58489990	1.37254906
724.58892822	1.47058821
724.58892822	1.52941179
724.59307861	1.60784316
724.59729004	1.68627453
724.60131836	1.82352936
724.60131836	1.88235295
724.60540771	1.98039210
724.60943604	2.07843137
724.61364746	2.13725495
724.61773682	2.11764717
724.61773682	2.13725495
724.62170410	2.11764717
724.62579346	2.19607854
724.63000488	2.25490189
724.63000488	2.35294127
724.63415527	2.45098042
724.63806152	2.45098042
724.64227295	2.60784316
724.64642334	2.58823538
724.65051270	2.64705873
724.65447998	2.78431368
724.65881348	3.00000000
724.65881348	3.01960778
724.66290283	3.03921580
724.66687012	2.86274505
724.67095947	2.94117641
724.67492676	3.19607854
724.67913818	3.35294127
724.68334961	3.31372547
724.68731689	3.49019599
724.68731689	3.45098042
724.69128418	3.50980401
724.69567871	3.50980401
724.69958496	3.45098042
724.70373535	3.33333325
724.70788574	3.29411769
724.71197510	3.47058821
724.71600342	3.37254906
724.71600342	3.23529410
724.72009277	3.29411769
724.72454834	3.13725495
724.72851563	3.03921580
724.73236084	3.11764717
724.73645020	3.09803915
724.74066162	3.03921580
724.74481201	2.92156863
724.74481201	2.88235283
724.74877930	2.86274505
724.75286865	2.90196085
724.75695801	2.72549009
724.75695801	2.60784316
724.76104736	2.49019599
724.76519775	2.47058821
724.76928711	2.52941179
724.77337646	2.52941179
724.77337646	2.56862736
724.77752686	2.39215684
724.78149414	2.37254906
724.78588867	2.31372547
724.78588867	2.21568632
724.78979492	2.29411769
724.79388428	2.13725495
724.79791260	1.98039210
724.80194092	1.94117641
724.80194092	1.96078432
724.80615234	1.84313726
724.81024170	1.72549021
724.81451416	1.74509799
724.81451416	1.76470590
724.81854248	1.68627453
724.82250977	1.76470590
724.82659912	1.90196073
724.83074951	1.82352936
724.83074951	1.80392158
724.83508301	1.68627453
724.83880615	1.64705884
724.84301758	1.68627453
724.84301758	1.74509799
724.84716797	1.80392158
724.85113525	1.92156863
724.85528564	1.90196073
724.85937500	2.03921580
724.85937500	1.82352936
724.86376953	1.82352936
724.86761475	1.94117641
724.87176514	1.98039210
724.87176514	1.94117641
724.87567139	1.80392158
724.87988281	1.62745094
724.88391113	1.25490201
724.88812256	1.03921568
724.88812256	0.94117647
724.89208984	0.86274511
724.89654541	1.13725495
724.90039063	1.82352936
724.90039063	2.86274505
724.90441895	3.74509811
724.90869141	4.78431368
724.91290283	4.98039198
724.91674805	4.98039198
724.91674805	4.98039198
724.92089844	4.98039198
724.92486572	4.90196085
724.92901611	4.37254906
724.92901611	3.80392146
724.93322754	2.94117641
724.93719482	2.17647052
724.94122314	1.52941179
724.94555664	1.07843137
724.94555664	1.05882359
724.94946289	1.17647064
724.95361328	1.15686274
724.95812988	1.27450979
724.95812988	1.37254906
724.96191406	1.49019611
724.96588135	1.54901958
724.97021484	1.60784316
724.97436523	1.70588231
724.97436523	1.76470590
724.97821045	1.78431368
724.98229980	1.88235295
724.98632813	1.84313726
724.98632813	1.82352936
724.99041748	2.00000000
724.99456787	1.96078432
724.99877930	2.05882359
725.00274658	2.07843137
725.00689697	2.17647052
725.01086426	2.29411769
725.01501465	2.27450991
725.01501465	2.23529410
725.01910400	2.25490189
725.02331543	2.33333325
725.02740479	2.35294127
725.03137207	2.49019599
725.03546143	2.52941179
725.03979492	2.58823538
725.04400635	2.60784316
725.04400635	2.64705873
725.04791260	2.66666675
725.05206299	2.74509811
725.05621338	2.78431368
725.06036377	2.90196085
725.06427002	2.80392146
725.06848145	2.82352948
725.07263184	2.86274505
725.07263184	2.96078420
725.07672119	3.01960778
725.08074951	3.13725495
725.08496094	3.05882359
725.08898926	3.17647052
725.09283447	3.19607854
725.09704590	3.09803915
725.10107422	3.01960778
725.10107422	3.03921580
725.10516357	3.03921580
725.10925293	2.98039222
725.11334229	2.92156863
725.11761475	2.82352948
725.12152100	2.82352948
725.12561035	2.70588231
725.12976074	2.68627453
725.12976074	2.68627453
725.13385010	2.50980401
725.13787842	2.49019599
725.14202881	2.50980401
725.14202881	2.56862736
725.14630127	2.45098042
725.15026855	2.43137264
725.15417480	2.39215684
725.15838623	2.35294127
725.15838623	2.31372547
725.16278076	2.23529410
725.16656494	2.03921580
725.17077637	1.98039210
725.17077637	1.90196073
725.17480469	1.92156863
725.17895508	1.96078432
725.18310547	1.86274505
725.18725586	1.74509799
725.18725586	1.70588231
725.19110107	1.88235295
725.19543457	1.84313726
725.19964600	1.80392158
725.19964600	1.76470590
725.20349121	1.74509799
725.20751953	1.72549021
725.21191406	1.84313726
725.21575928	1.86274505
725.21575928	1.84313726
725.21984863	1.80392158
725.22393799	1.80392158
725.22796631	1.82352936
725.22796631	1.88235295
725.23217773	1.94117641
725.23626709	1.94117641
725.24035645	1.96078432
725.24444580	1.90196073
725.24444580	1.90196073
725.24847412	1.82352936
725.25262451	1.80392158
725.25671387	1.54901958
725.25671387	1.15686274
725.26086426	0.96078432
725.26483154	0.70588237
725.26892090	0.94117647
725.27331543	1.56862748
725.27331543	2.27450991
725.27752686	3.33333325
725.28131104	4.33333349
725.28533936	4.98039198
725.28533936	4.98039198
725.28942871	4.98039198
725.29357910	4.98039198
725.29791260	4.98039198
725.30169678	4.78431368
725.30169678	4.43137264
725.30621338	3.64705873
725.30999756	2.94117641
725.31414795	2.19607854
725.31414795	1.68627453
725.31805420	1.45098042
725.32220459	1.39215684
725.32635498	1.37254906
725.33056641	1.27450979
725.33056641	1.33333337
725.33465576	1.39215684
725.33886719	1.41176474
725.34277344	1.54901958
725.34277344	1.50980389
725.34686279	1.56862748
725.35101318	1.62745094
725.35498047	1.66666663
725.35906982	1.70588231
725.35906982	1.82352936
725.36334229	1.82352936
725.36737061	1.82352936
725.37158203	1.88235295
725.37158203	1.98039210
725.37542725	1.98039210
725.37957764	1.96078432
725.38372803	2.07843137
725.38781738	2.17647052
725.39190674	2.33333325
725.39617920	2.29411769
725.40039063	2.27450991
725.40039063	2.35294127
725.40423584	2.35294127
725.40826416	2.39215684
725.41241455	2.50980401
725.41650391	2.58823538
725.42059326	2.72549009
725.42474365	2.82352948
725.42877197	2.82352948
725.42877197	2.86274505
725.43286133	2.94117641
725.43701172	2.96078420
725.44110107	3.03921580
725.44531250	3.01960778
725.44934082	3.17647052
725.45336914	3.17647052
725.45745850	3.09803915
725.45745850	3.13725495
725.46160889	3.25490189
725.46563721	3.25490189
725.46984863	3.29411769
725.47381592	3.17647052
725.47790527	3.19607854
725.48205566	3.25490189
725.48614502	3.23529410
725.48614502	3.19607854
725.49023438	3.17647052
725.49420166	3.17647052
725.49847412	3.23529410
725.49847412	3.35294127
725.50244141	3.33333325
725.50659180	3.21568632
725.51068115	3.03921580
725.51477051	3.01960778
725.51477051	2.94117641
725.51885986	3.09803915
725.52319336	3.05882359
725.52734375	3.00000000
725.52734375	2.92156863
725.53131104	2.98039222
725.53521729	2.84313726
725.53942871	2.72549009
725.54345703	2.60784316
725.54345703	2.45098042
725.54748535	2.23529410
725.55169678	2.21568632
725.55578613	2.17647052
725.55578613	2.15686274
725.55981445	2.19607854
725.56396484	2.15686274
725.56799316	2.11764717
725.57208252	2.09803915
725.57208252	2.09803915
725.57623291	2.09803915
725.58044434	2.09803915
725.58447266	2.19607854
725.58447266	2.15686274
725.58856201	2.21568632
